106.000	372.000	39.000	88.000
107.419	370.485	39.229	88.444
108.327	370.321	40.570	90.437
109.845	370.364	40.920	92.061
111.619	370.420	40.886	92.561
112.133	370.369	43.350	92.514
111.884	370.829	44.999	92.043
112.212	371.801	43.859	91.636
112.290	372.879	44.636	91.025
112.250	373.461	45.192	90.217
114.386	371.968	47.384	93.139
115.587	373.233	48.254	93.151
116.629	373.282	47.227	93.823
116.348	374.516	46.252	92.207
109.717	375.261	44.996	91.964
102.750	375.227	46.363	91.310
100.386	374.861	44.804	92.480
100.697	373.564	42.863	94.343
101.359	373.791	43.031	93.685
104.408	374.264	41.287	94.802
105.645	373.632	42.146	95.796
107.042	375.026	43.940	94.941
108.082	375.458	43.671	94.638
106.919	375.968	44.065	94.815
106.313	376.428	45.547	95.060
105.648	376.388	47.625	96.568
105.786	377.049	46.746	96.062
105.317	376.935	46.611	96.669
105.667	376.096	45.861	98.346
106.685	376.194	44.479	98.666
105.932	376.825	44.614	99.043
101.151	376.195	46.648	100.256
97.122	376.706	49.433	100.556
95.781	376.688	51.419	99.690
94.694	377.110	52.833	99.257
93.970	379.447	54.054	96.378
92.074	379.590	54.654	97.719
92.742	379.220	55.129	98.836
93.757	380.067	54.900	98.442
93.048	379.622	55.029	99.212
89.325	379.408	51.366	101.077
83.863	380.224	47.231	99.117
72.540	379.550	46.729	101.351
64.352	381.263	44.746	99.654
58.027	382.157	44.678	99.753
53.703	383.190	45.386	98.752
47.570	385.201	46.801	99.290
39.544	387.038	47.419	97.624
33.471	388.515	49.162	97.472
24.639	388.588	49.736	98.994
13.708	389.665	50.050	99.169
0.848	390.622	41.853	98.813
0.048	391.673	34.740	97.810
0.000	392.659	29.627	98.486
0.000	390.496	28.578	98.780
0.038	390.465	29.680	95.328
0.000	389.897	29.248	96.454
0.000	389.923	30.441	98.385
0.000	389.465	30.767	101.409
7.230	391.630	46.040	102.439
2.971	393.761	42.499	96.524
4.744	393.677	41.072	98.148
4.115	395.062	40.478	95.456
3.967	394.252	39.964	98.510
3.510	394.719	40.031	100.368
1.065	393.788	43.103	100.300
1.242	395.531	37.672	103.168
0.741	396.189	36.735	105.271
0.307	398.330	34.373	102.415
0.000	399.052	32.824	104.274
0.000	400.180	28.691	102.469
0.099	401.400	31.116	102.621
6.777	393.630	48.826	110.261
4.023	393.894	52.366	112.286
2.361	392.972	51.471	115.095
1.624	391.905	49.494	112.329
2.089	392.440	46.275	117.022
1.568	396.709	41.128	117.215
1.375	396.465	40.426	115.722
25.697	400.299	48.852	115.982
34.721	402.694	50.077	116.824
45.207	402.893	50.035	112.550
61.955	403.421	50.273	107.901
74.162	405.634	50.611	110.021
85.015	404.515	48.911	106.587
95.633	400.534	50.058	111.730
90.550	403.872	54.621	112.282
101.197	400.971	55.391	116.834
91.026	405.171	59.706	120.557
97.277	405.604	63.917	109.341
99.988	408.209	57.302	104.825
116.844	404.847	51.760	102.806
127.427	400.250	58.812	107.666
123.308	401.253	55.133	109.674
125.994	399.149	67.073	110.909
140.586	397.022	67.222	117.222
8.543	413.978	49.137	122.156
17.234	412.698	54.565	118.961
17.528	412.613	64.844	124.505
21.291	412.094	70.019	124.595
23.679	411.685	82.409	127.765
43.228	409.812	71.388	124.101
64.651	408.194	61.579	128.268
72.605	406.428	61.930	122.425
79.400	406.296	63.359	121.075
82.978	402.156	64.702	122.421
99.008	408.057	63.396	125.620
93.104	406.740	69.250	121.012
110.864	406.705	70.953	120.324
127.418	409.144	60.769	119.002
86.541	387.379	59.534	121.870
83.575	386.158	61.437	121.398
86.531	386.011	56.464	113.866
95.931	386.646	59.734	111.598
92.028	386.278	51.538	110.566
107.665	390.615	54.213	110.619
120.643	398.452	59.918	108.478
118.609	396.176	58.528	108.575
104.194	391.702	52.951	107.903
98.540	391.611	52.590	101.954
103.913	389.950	45.250	101.563
107.899	390.283	42.620	101.869
113.595	389.744	42.237	104.996
116.335	389.285	44.374	107.751
118.232	390.258	44.346	106.140
119.590	391.096	46.055	104.463
120.147	391.272	47.271	104.722
120.395	392.407	48.211	104.026
120.041	392.617	49.310	103.526
119.661	392.923	53.207	102.375
121.844	391.443	56.146	104.038
124.984	391.468	57.261	104.275
130.749	391.587	59.608	104.227
137.778	390.630	54.515	104.546
147.924	391.026	53.595	103.497
153.798	391.402	47.568	102.073
160.941	391.652	45.094	103.517
164.959	390.959	43.278	103.749
166.614	391.662	48.370	103.303
166.581	391.419	46.721	101.455
167.999	392.548	51.391	103.481
168.902	393.027	55.687	103.472
171.990	394.327	56.271	102.092
174.959	394.265	59.021	102.428
176.355	394.772	60.175	103.086
180.090	393.494	60.082	101.281
184.034	393.158	59.809	103.135
192.044	392.017	56.828	104.465
201.494	391.714	50.997	104.775
207.934	392.735	49.738	103.732
213.028	391.888	51.406	103.699
215.786	392.153	49.093	104.541
216.822	392.735	52.303	102.996
216.802	393.165	58.898	103.285
216.597	392.963	62.497	103.545
217.312	395.100	67.598	101.976
219.356	393.827	68.720	103.178
225.543	393.932	67.655	103.389
232.129	395.009	68.664	101.420
235.089	394.791	66.837	101.112
241.738	393.642	60.140	101.131
254.449	392.635	49.977	100.619
262.124	392.930	47.337	98.239
265.750	391.861	47.762	100.975
268.820	391.252	48.850	100.915
272.147	390.924	49.539	102.725
273.896	392.731	50.341	100.675
275.686	395.004	53.122	98.461
278.087	393.953	54.687	98.577
279.309	394.487	58.739	99.792
283.448	393.493	58.236	100.370
287.265	390.570	58.209	103.344
284.440	392.733	61.069	102.226
284.268	392.783	56.184	102.180
287.143	390.527	54.172	101.544
284.058	391.056	51.581	102.000
285.473	378.847	50.322	110.599
277.523	384.842	51.420	100.456
278.341	382.614	52.088	105.368
275.782	387.673	57.489	103.230
278.727	379.167	57.351	111.491
278.204	380.575	62.840	108.697
279.085	380.507	64.302	109.234
284.143	386.551	61.639	102.238
288.272	377.129	59.539	106.776
292.830	389.736	58.176	97.787
297.645	374.100	54.637	106.778
303.033	385.052	55.503	97.949
307.397	370.958	53.547	108.896
308.377	379.777	52.366	105.305
311.834	375.351	52.913	110.629
312.216	374.043	51.612	113.429
313.593	378.612	53.312	108.798
315.903	382.203	51.349	102.892
317.325	381.899	52.574	101.059
317.990	376.202	51.640	105.207
318.818	388.161	53.908	94.888
322.047	371.895	50.686	104.689
323.141	375.824	52.258	97.552
324.803	373.313	53.085	100.321
326.711	388.760	54.990	87.158
326.964	380.360	52.544	93.026
329.347	385.729	54.378	88.856
324.135	377.681	51.644	95.211
332.935	392.399	51.406	89.636
327.320	392.492	52.794	85.822
332.768	392.847	51.238	89.205
335.144	394.846	51.608	86.258
337.509	393.721	50.929	86.084
339.013	394.316	50.103	82.491
340.577	393.506	50.952	85.995
338.130	392.891	54.375	86.028
343.561	388.847	51.807	88.482
346.123	390.897	51.549	88.307
350.772	392.556	49.987	87.393
352.424	388.989	48.842	90.789
352.387	387.088	50.052	92.326
356.264	387.186	47.457	90.591
352.935	386.321	49.410	92.429
350.997	380.381	51.807	95.481
347.809	371.731	49.610	98.629
353.860	382.359	51.531	90.537
349.168	367.263	50.176	97.194
352.702	372.643	51.407	99.045
358.332	377.582	53.033	93.557
353.671	368.751	52.966	96.275
367.203	383.176	47.279	91.078
360.371	365.133	48.929	97.157
366.674	378.177	48.623	91.592
366.241	369.373	45.572	92.130
372.979	381.821	45.282	85.911
365.060	368.723	46.298	95.613
372.836	383.139	43.681	81.142
370.756	382.351	45.023	82.276
368.771	375.757	43.588	85.116
367.252	374.251	44.661	84.733
373.630	380.042	44.889	83.206
366.098	381.926	47.727	80.288
362.084	367.374	45.605	91.347
363.199	379.576	47.448	80.331
363.419	370.598	44.257	87.139
363.468	368.307	42.817	86.723
366.004	366.257	42.960	93.835
372.338	377.865	43.096	88.117
377.250	378.821	42.732	88.538
375.382	377.941	42.910	87.966
374.214	376.816	43.693	89.496
370.863	373.439	45.804	93.436
372.401	373.970	48.726	93.016
378.700	379.290	46.499	89.080
373.346	373.921	48.523	92.760
376.203	371.774	48.741	94.071
380.096	376.633	48.387	90.079
376.440	368.595	47.991	97.330
378.438	370.388	48.103	95.194
383.958	372.304	45.531	92.244
384.331	368.099	43.107	93.124
387.539	373.965	45.200	89.423
389.125	374.745	45.008	87.537
385.109	367.496	44.943	91.865
387.459	371.434	47.523	87.437
388.558	370.632	48.464	89.997
389.858	370.292	48.755	90.731
388.707	367.074	48.545	90.603
391.716	370.208	47.913	88.617
394.752	368.492	46.737	89.626
394.560	366.203	46.632	90.059
396.970	363.433	43.589	89.913
404.405	367.833	44.322	92.191
406.208	369.762	44.375	91.558
407.347	365.178	43.100	96.844
409.305	366.786	41.749	95.349
410.246	366.879	43.240	93.971
411.218	368.509	44.379	93.486
411.961	368.256	44.890	93.559
412.925	368.288	46.742	92.838
414.226	369.028	46.899	91.969
415.111	367.495	47.885	92.259
417.720	364.414	48.233	94.571
419.995	364.069	47.970	93.689
421.501	363.005	45.694	92.969
424.518	363.762	44.593	93.948
427.229	361.847	41.216	93.706
429.157	360.993	40.233	96.607
429.174	361.977	41.849	95.212
430.678	363.517	43.493	91.565
428.956	362.224	44.642	94.200
430.996	362.875	45.987	93.740
430.652	362.085	48.640	94.826
426.874	360.625	50.473	95.252
419.704	361.314	46.593	93.783
412.686	363.202	45.209	88.230
405.420	364.222	47.141	87.446
400.272	363.418	48.297	89.121
400.650	364.113	44.963	89.416
403.406	363.655	43.628	90.558
406.005	363.423	42.806	90.366
408.191	364.323	39.081	89.844
406.462	365.244	41.291	88.495
404.766	363.299	46.985	89.736
403.568	364.669	41.131	87.858
404.101	366.241	43.015	86.816
403.134	369.386	41.665	84.838
404.457	367.850	42.887	86.090
406.559	369.066	40.834	83.703
439.494	368.342	49.745	80.057
411.219	365.390	44.683	88.151
409.090	364.650	44.353	90.258
396.524	361.992	42.527	91.551
389.485	362.046	43.398	91.328
382.335	360.512	45.835	88.364
381.117	360.928	46.531	88.029
381.388	362.476	47.681	85.582
382.936	363.131	47.490	84.587
384.526	364.302	47.264	82.467
385.556	360.568	48.291	87.179
387.560	361.290	48.026	85.899
386.206	359.688	49.052	87.092
381.800	361.088	49.475	84.847
380.121	359.022	46.924	85.972
379.909	355.958	45.991	87.850
380.523	356.381	44.647	88.284
384.099	356.988	41.340	87.727
386.852	357.544	40.559	88.073
388.774	358.182	40.007	87.314
389.265	357.875	41.592	87.089
391.342	357.553	40.422	88.676
391.758	358.334	41.880	87.186
394.107	358.603	41.094	86.756
395.593	358.254	41.699	87.048
397.397	357.973	42.776	86.865
398.961	358.114	42.997	86.671
400.130	359.691	42.657	85.094
403.059	358.194	41.592	85.996
403.396	359.568	43.822	84.946
405.198	357.791	44.545	85.978
406.521	358.512	45.948	85.123
408.715	357.858	46.607	85.241
409.742	357.500	46.963	85.442
411.578	359.889	47.620	83.192
412.911	362.640	48.398	80.538
415.108	358.579	46.151	83.125
416.247	364.773	48.098	76.874
418.985	362.782	47.069	78.893
421.820	363.930	45.676	76.608
424.184	365.488	45.353	75.459
426.885	364.651	44.877	76.869
429.007	365.145	45.118	75.891
431.542	363.747	43.996	75.887
433.085	364.149	44.890	75.980
433.702	360.800	47.149	78.211
431.225	357.531	50.856	80.982
433.032	357.014	51.329	82.533
435.554	359.027	51.283	80.829
439.581	364.468	50.022	75.147
433.433	354.856	37.628	80.657
435.956	360.116	47.817	77.058
436.288	355.727	38.664	81.122
462.000	364.501	39.210	72.397
465.933	361.654	36.461	75.873
465.911	358.926	39.410	78.239
472.045	344.898	34.790	80.753
470.254	362.071	37.730	74.256
471.784	355.735	34.620	81.411
471.949	349.692	34.988	85.743
446.732	353.756	42.828	76.527
452.195	360.076	53.410	72.671
474.340	359.672	41.505	76.294
447.915	353.295	38.038	78.197
447.394	351.351	39.784	78.479
447.138	350.799	41.571	79.125
447.837	351.756	42.080	77.871
449.941	352.285	41.546	77.461
450.407	352.290	41.170	77.532
450.839	350.830	40.403	79.065
451.335	349.631	39.562	79.635
451.312	349.272	39.626	78.813
452.297	349.421	37.527	78.541
451.254	346.332	39.454	81.010
451.082	346.410	42.588	80.600
453.027	347.996	40.929	79.364
456.159	349.570	38.450	78.021
451.417	349.668	36.595	70.160
449.777	345.779	38.180	70.215
448.785	344.737	38.042	70.529
446.137	343.499	36.849	70.069
443.231	343.659	36.639	68.935
444.253	343.543	40.197	70.650
442.892	343.496	34.638	70.804
442.920	343.105	33.531	69.996
442.671	340.964	33.109	72.071
441.590	341.610	33.409	71.374
440.510	340.584	32.945	71.885
439.809	341.830	32.264	69.897
439.769	341.397	30.508	69.057
438.924	342.264	29.791	69.058
438.238	342.349	29.566	69.380
438.645	341.036	29.406	70.574
437.612	343.202	30.107	68.184
435.862	343.744	31.500	67.761
433.586	343.727	33.293	67.871
431.455	343.143	34.509	68.252
429.431	342.508	36.628	68.320
428.006	342.491	37.586	68.667
426.047	342.532	37.042	68.281
426.795	341.898	37.817	68.858
424.925	342.194	38.715	68.755
424.718	342.546	39.115	68.599
424.869	342.037	38.277	69.150
426.930	341.146	40.807	70.261
453.543	342.429	39.945	70.590
456.869	346.017	37.800	71.081
456.700	345.744	36.196	72.442
452.353	344.611	36.842	72.967
456.623	344.164	35.971	72.593
451.346	344.065	36.450	70.124
455.990	347.605	35.388	70.215
456.881	345.304	32.734	71.374
457.762	343.998	32.775	70.694
457.418	345.893	32.892	69.890
458.009	346.090	32.311	69.870
458.189	347.014	33.490	71.576
458.444	346.318	33.688	71.876
458.253	346.246	33.829	73.214
457.674	345.344	33.664	73.751
457.528	345.319	33.433	74.072
457.566	344.874	33.355	74.089
455.420	343.009	35.460	75.688
452.625	343.691	37.123	74.243
456.365	343.748	37.499	75.438
453.928	342.352	36.808	76.887
423.311	342.623	38.051	69.130
456.061	343.116	36.165	75.055
455.489	345.642	36.441	74.673
456.095	344.986	36.490	75.288
456.935	343.467	34.299	77.210
456.224	344.157	35.857	75.439
455.378	345.142	37.003	74.201
456.534	343.734	34.588	75.690
453.833	342.859	36.519	74.048
426.492	341.007	35.049	70.884
424.015	342.788	35.471	68.665
426.612	341.686	32.036	69.330
421.411	341.844	34.307	69.849
420.599	343.075	34.179	68.291
418.548	343.112	34.303	67.868
418.542	340.808	37.086	70.224
418.480	342.367	37.392	68.560
417.156	342.113	37.501	68.676
417.571	342.048	36.251	69.405
417.114	342.661	37.477	69.148
417.484	342.902	36.176	69.038
419.106	343.369	34.679	68.840
417.454	344.039	37.049	68.056
414.403	344.493	40.189	67.762
412.379	343.447	41.016	69.236
411.482	341.359	40.914	70.346
408.742	342.035	41.790	69.204
408.579	341.970	41.264	69.341
409.154	342.559	39.314	68.931
406.599	342.763	39.933	68.843
406.150	342.300	42.550	69.034
404.591	343.137	43.252	68.121
404.292	342.546	42.479	68.923
405.286	342.282	39.886	69.423
407.036	342.509	35.148	69.449
410.962	341.445	29.338	70.732
411.717	342.413	28.140	69.188
410.082	343.574	28.484	67.712
409.451	343.259	28.419	67.654
409.062	344.860	28.649	65.803
407.867	342.736	28.692	67.238
408.529	341.751	28.002	67.856
408.325	342.461	28.442	67.495
407.369	342.030	29.476	68.183
408.250	342.539	28.067	67.981
408.969	341.748	26.859	69.325
409.531	342.834	25.981	68.157
410.193	342.668	25.875	68.203
407.448	343.083	29.384	66.638
404.207	343.793	31.230	67.175
402.254	343.674	34.749	67.706
399.693	342.049	36.493	68.817
401.106	342.372	36.530	68.470
401.157	342.851	36.309	68.203
401.628	342.938	35.381	68.312
400.146	343.071	36.401	67.922
397.429	343.152	39.290	67.855
399.841	342.873	38.197	67.808
400.267	343.884	35.431	67.892
403.738	344.359	31.429	67.480
405.870	343.979	27.984	67.606
407.953	343.212	26.490	68.252
407.639	345.818	25.691	65.949
407.236	345.913	26.968	65.438
405.780	345.625	27.799	65.547
405.841	343.390	27.937	67.263
404.506	343.108	29.889	67.150
403.939	342.863	30.432	67.356
404.177	342.187	29.971	67.795
405.073	342.353	28.924	68.072
405.758	343.306	28.052	67.358
407.321	342.892	26.924	68.011
408.171	343.398	26.117	68.237
408.273	344.213	27.272	67.431
404.738	343.557	31.865	67.030
401.823	343.832	32.547	67.787
400.364	343.922	35.617	67.609
399.823	344.222	37.380	67.520
397.487	344.170	39.064	67.732
396.416	343.743	40.464	67.007
397.810	343.740	39.695	67.544
396.773	343.961	39.716	67.471
396.921	343.472	40.584	67.521
397.625	343.811	38.504	67.710
400.629	342.919	35.492	68.660
402.301	343.023	32.514	68.844
405.522	343.162	28.241	68.366
407.412	345.479	25.424	65.889
407.068	343.865	27.219	66.865
405.360	346.170	28.269	64.855
405.462	344.073	29.001	66.712
404.843	345.439	28.628	65.456
404.214	344.223	30.246	66.438
403.686	344.156	30.763	66.263
403.482	342.707	30.645	66.858
403.898	342.809	29.841	66.626
405.367	342.693	27.644	67.589
406.981	342.614	26.558	67.944
408.225	343.689	25.052	67.388
407.520	343.195	26.067	67.697
403.471	343.385	28.932	67.426
400.516	343.347	31.460	67.316
399.543	343.604	33.759	67.043
397.732	344.123	36.875	66.825
396.971	343.226	38.637	67.438
396.969	343.929	38.055	67.425
395.424	343.564	39.939	67.213
395.581	343.343	39.509	67.468
395.053	343.450	39.641	67.393
396.397	343.194	38.292	67.672
398.131	343.997	36.499	67.325
400.654	343.984	32.851	67.659
404.289	343.784	29.458	67.402
406.499	343.415	27.395	67.361
405.185	343.414	28.384	67.489
405.091	344.638	30.099	65.871
404.381	344.184	30.827	66.564
404.312	344.018	30.773	66.558
403.446	344.064	31.962	66.299
402.654	343.975	32.503	66.418
402.582	343.832	32.516	66.660
403.008	343.696	32.714	66.704
403.582	343.976	31.401	66.108
405.691	343.167	28.124	68.046
406.969	343.553	27.690	67.473
407.602	344.084	27.082	66.901
405.141	344.132	29.868	66.846
401.235	343.321	32.304	66.825
399.834	343.955	34.221	67.466
398.186	344.316	34.433	67.179
397.812	343.804	35.469	67.974
398.006	343.162	35.349	67.366
399.482	343.774	34.887	67.077
399.963	344.004	34.633	67.216
398.209	343.968	32.424	66.167
398.538	344.862	32.026	65.661
399.496	343.668	30.715	66.298
400.879	343.880	28.541	65.909
402.683	343.575	26.726	65.939
403.700	343.917	26.893	65.730
405.056	344.507	29.272	66.772
411.303	347.784	35.578	71.046
406.079	345.597	34.154	69.548
407.614	345.346	31.864	69.653
407.846	345.668	31.349	70.099
414.856	346.321	32.263	69.932
411.886	347.048	32.924	71.183
410.063	346.918	32.990	70.737
406.770	344.390	34.851	73.349
363.617	371.745	50.301	107.202
328.667	371.906	63.497	109.650
332.474	372.230	62.138	108.271
336.091	372.243	63.332	108.641
339.407	370.289	61.462	110.166
345.372	367.737	55.560	111.465
353.719	367.011	53.200	111.687
360.663	366.877	61.599	110.675
387.896	369.689	60.883	119.864
362.416	367.047	55.982	114.673
376.342	369.083	61.771	115.034
404.030	371.028	53.893	119.706
384.728	372.494	77.024	114.305
365.759	374.342	78.307	109.558
402.476	372.967	74.091	115.200
404.504	374.599	79.636	112.732
377.203	374.546	67.884	109.789
382.592	375.957	59.627	104.541
386.562	374.027	63.868	104.706
391.738	375.156	63.323	107.322
399.937	370.689	57.933	113.161
407.136	368.125	50.884	110.815
411.468	377.436	51.112	107.235
415.276	373.576	51.477	107.277
416.051	373.519	52.737	107.707
418.818	375.038	52.000	104.149
420.759	377.597	56.206	101.741
420.979	380.670	61.016	100.547
420.955	383.985	68.076	98.810
422.620	382.900	69.899	100.541
429.157	382.250	74.069	102.584
425.948	379.569	97.905	104.820
484.123	377.845	64.679	107.566
455.235	375.708	91.929	108.909
445.772	365.375	63.315	115.842
364.948	384.479	64.218	128.967
359.752	385.531	71.118	126.964
364.156	385.431	67.952	125.751
374.162	384.418	60.236	127.117
383.804	386.426	62.979	121.920
390.592	387.054	69.603	119.394
401.024	391.583	68.770	114.832
411.540	389.523	66.216	117.386
425.126	390.997	64.499	117.341
420.682	393.101	78.371	116.473
434.004	390.978	74.332	119.384
444.848	388.469	65.312	122.114
456.790	388.380	56.719	120.379
443.974	395.977	66.884	112.064
430.759	383.281	73.292	121.855
445.785	386.316	72.080	117.365
453.954	386.179	71.412	118.342
415.863	389.486	79.304	116.524
397.725	394.730	74.404	113.737
388.951	401.389	72.229	108.193
394.479	390.764	78.351	118.706
407.578	393.426	70.524	111.534
430.144	393.411	70.935	108.988
436.623	387.947	91.504	115.240
518.451	388.482	64.089	119.896
630.645	366.433	56.582	112.348
636.236	369.371	53.710	109.273
640.760	363.779	52.488	114.043
646.164	367.701	51.530	110.185
652.442	364.802	49.065	113.114
655.095	364.503	50.401	113.089
659.130	364.358	52.082	112.572
662.658	365.162	55.425	111.509
664.183	365.348	59.666	110.447
668.409	365.519	60.481	110.280
673.519	364.770	61.027	111.711
679.421	364.658	58.769	111.746
684.378	364.808	58.884	111.726
696.639	364.467	55.318	110.551
704.022	364.537	55.773	110.912
711.042	363.539	54.631	111.649
713.760	363.043	55.449	112.302
715.025	362.422	56.215	112.872
716.015	362.196	57.481	112.879
717.611	361.601	60.209	113.215
719.256	360.991	63.617	113.856
721.307	361.818	64.725	112.550
725.788	362.043	63.462	111.484
727.543	362.346	64.024	110.573
730.766	362.459	62.493	110.882
734.470	362.471	60.436	111.324
738.767	362.057	57.328	111.613
742.944	362.612	56.679	110.646
747.950	361.372	52.946	110.316
752.961	361.248	52.112	110.809
759.291	360.893	49.485	108.604
763.584	360.180	47.931	110.071
766.460	361.150	48.940	108.849
770.424	361.041	50.293	106.034
773.147	361.628	51.967	106.179
777.387	360.255	54.111	106.049
781.378	361.661	54.370	104.620
785.504	360.913	52.848	103.895
789.976	361.401	51.763	104.125
794.155	360.683	48.383	104.023
796.715	361.021	50.152	103.789
799.634	359.751	51.376	105.300
803.576	358.073	51.637	107.437
805.881	356.856	52.626	108.413
809.637	356.584	53.091	107.950
811.203	356.483	52.153	108.530
818.922	355.951	49.760	102.256
822.719	356.288	51.648	95.281
828.599	357.864	52.013	85.560
833.740	357.918	52.318	92.571
841.799	356.961	49.165	91.148
842.029	357.815	56.003	84.347
844.108	357.245	55.716	77.659
848.966	356.222	54.202	88.965
850.114	356.735	56.078	89.683
854.804	356.395	53.263	104.841
863.205	351.551	48.063	96.098
864.631	355.006	55.139	106.796
868.054	353.043	54.694	120.327
872.593	354.358	56.230	114.184
872.098	355.491	58.148	120.759
873.303	355.562	61.202	116.770
873.853	356.251	60.359	120.860
878.617	355.476	55.103	118.197
882.895	355.626	51.701	115.103
888.174	356.047	46.684	108.649
891.307	355.650	45.547	103.678
892.083	354.743	45.757	106.663
895.003	352.683	46.136	107.515
896.432	353.653	44.796	114.449
901.044	350.722	45.764	117.779
903.308	351.795	45.782	110.435
909.254	348.629	42.434	102.648
908.682	349.249	44.085	99.698
911.193	357.571	44.505	108.728
916.429	353.637	41.749	107.671
918.170	352.457	40.919	96.954
921.242	355.208	37.319	105.662
813.570	353.833	45.848	108.299
818.231	350.429	43.961	98.928
831.218	352.247	42.030	95.172
838.870	352.355	43.178	93.670
843.326	351.355	43.643	93.638
849.270	350.442	41.304	87.948
852.299	351.536	42.975	79.670
856.661	353.199	41.049	81.599
859.283	352.003	40.381	77.577
860.307	354.387	43.386	75.769
863.410	352.520	44.178	77.596
865.584	353.506	46.187	79.882
859.692	350.744	46.395	77.141
861.968	353.238	42.660	73.747
866.059	352.817	40.201	72.049
870.335	352.673	36.465	74.951
871.564	352.446	41.245	74.943
874.777	351.586	39.425	76.070
875.932	350.462	37.957	74.102
875.413	351.176	39.107	71.351
879.616	350.843	39.506	75.221
886.808	351.811	39.712	75.460
892.543	351.926	40.720	74.533
901.029	351.996	40.309	78.021
905.805	351.778	42.959	81.420
905.802	352.906	49.844	89.139
904.776	352.712	50.016	89.888
911.487	351.735	44.782	91.553
920.454	351.454	38.046	82.063
928.255	345.788	31.745	83.645
931.105	347.037	28.602	86.246
927.258	351.224	32.360	84.383
913.394	354.957	46.606	87.122
894.793	358.871	46.855	97.267
880.706	367.969	52.480	114.400
883.596	359.627	60.832	111.798
835.991	363.851	48.978	102.666
829.131	363.437	48.603	100.707
833.213	364.796	45.683	97.013
826.194	371.240	49.977	107.306
832.044	364.587	52.259	93.502
837.327	359.992	48.407	94.228
844.661	362.120	49.159	86.302
850.550	362.690	48.064	91.903
850.819	366.344	45.095	94.081
861.122	364.091	43.774	95.004
867.934	361.999	45.647	103.952
877.853	366.485	44.855	105.580
887.954	363.788	45.251	105.070
885.888	374.394	46.284	111.141
892.767	364.043	50.392	88.420
896.050	368.436	48.721	95.730
898.130	371.707	40.995	98.420
905.538	367.060	42.907	108.108
884.417	394.314	55.926	116.650
848.774	383.177	74.012	127.260
855.183	383.331	70.058	122.193
870.954	402.382	61.981	108.741
868.693	381.323	68.827	122.610
855.089	389.803	69.364	114.837
709.014	369.036	53.994	118.472
713.137	367.353	51.866	121.035
719.504	367.469	51.016	120.603
723.819	370.911	53.579	116.371
726.046	369.270	56.766	115.284
728.370	371.643	57.365	112.582
737.264	371.122	53.536	122.474
735.382	370.557	62.744	123.314
758.575	373.106	50.594	122.566
764.407	373.040	55.904	120.063
773.806	371.828	57.555	124.161
786.063	372.150	55.576	125.845
796.415	373.659	54.626	122.116
811.805	372.942	53.883	122.340
809.832	376.376	63.777	117.642
810.967	376.974	63.457	120.286
814.024	373.573	61.341	118.744
815.234	377.646	57.371	114.693
813.534	375.185	61.803	114.561
813.968	372.635	61.632	115.927
820.243	372.372	60.259	117.169
827.329	373.041	57.800	113.491
831.105	372.033	57.684	114.448
842.188	369.863	52.159	116.855
846.792	369.935	52.389	114.126
853.575	369.362	51.152	115.139
861.312	367.726	50.195	114.425
868.415	366.363	49.112	114.669
874.907	366.313	47.877	110.944
880.356	367.587	49.353	111.566
885.048	370.361	51.098	110.908
892.153	372.744	52.896	111.480
897.554	372.658	54.032	112.437
902.462	372.270	52.170	113.543
899.252	370.451	56.500	109.246
913.562	367.803	45.860	108.562
911.911	365.601	47.858	110.869
912.029	365.943	45.634	105.844
917.713	364.540	40.868	109.659
918.390	364.017	40.116	112.953
918.680	360.705	39.990	107.601
921.250	360.821	36.991	112.670
924.775	356.794	34.507	113.171
923.110	352.537	36.064	111.446
925.590	351.810	33.826	110.364
925.859	353.195	32.281	109.973
928.048	359.019	30.972	108.726
927.303	362.029	31.184	104.316
933.344	365.924	25.885	102.588
925.943	368.226	31.799	97.066
932.413	365.895	27.131	98.557
922.600	372.829	32.993	93.200
925.296	373.745	31.409	96.362
922.700	377.060	34.676	97.106
920.371	377.038	36.401	95.779
919.824	375.565	36.319	99.032
919.288	377.663	36.599	99.869
918.935	379.216	36.945	100.877
918.557	376.479	37.251	105.149
918.966	382.457	36.834	103.063
918.277	384.769	37.679	105.320
917.262	387.689	38.682	107.149
916.425	394.249	39.484	114.407
917.838	388.827	38.505	124.024
910.793	404.690	48.225	115.370
911.983	390.196	43.864	102.692
916.709	392.633	38.009	104.845
919.307	393.870	35.974	111.884
918.513	396.247	37.792	116.904
912.575	390.251	45.994	100.499
917.426	387.904	37.969	108.203
917.400	383.909	38.235	109.053
917.487	385.333	39.103	105.005
919.574	388.432	37.057	104.862
919.663	389.067	36.989	109.194
917.698	387.514	39.320	106.106
917.987	396.102	38.341	103.169
920.246	389.849	35.681	99.447
922.444	391.428	33.976	96.535
924.359	386.088	32.503	96.482
923.099	388.864	34.061	96.818
923.096	391.153	33.805	95.012
923.333	391.229	33.486	95.887
922.912	391.630	33.832	99.460
919.366	389.910	37.473	99.071
918.416	393.151	37.661	94.962
922.191	391.582	33.760	101.260
921.102	392.926	35.293	99.979
921.034	390.971	35.429	100.767
920.276	391.204	36.275	98.809
921.678	398.847	34.312	99.604
922.348	390.082	33.976	101.520
921.306	397.452	35.322	94.833
923.112	393.041	32.676	101.243
921.398	394.946	34.950	97.414
920.551	397.035	35.090	98.435
920.973	391.587	34.574	100.452
920.276	400.795	35.372	95.090
922.883	391.409	32.391	103.831
922.540	397.944	33.941	95.931
922.620	391.141	33.568	104.889
921.267	402.175	35.701	97.598
922.243	391.094	33.792	101.123
922.866	402.420	33.913	97.626
923.699	391.577	32.583	106.721
920.595	402.614	36.655	100.317
921.796	392.742	34.457	105.902
920.244	403.017	36.917	101.729
919.958	393.466	36.530	97.838
921.549	393.409	35.557	96.609
924.449	396.518	33.288	102.456
921.697	389.297	35.980	101.363
920.949	396.128	36.942	93.753
923.192	394.401	34.344	99.603
921.759	393.966	35.859	93.894
925.234	391.438	32.435	96.013
925.689	388.504	31.869	97.320
927.037	390.461	30.640	89.870
928.245	390.800	29.107	89.622
927.961	392.419	30.017	86.323
928.360	394.773	29.235	84.554
927.860	392.422	29.789	84.237
928.651	392.723	28.564	85.621
928.910	393.579	28.707	85.226
927.938	388.776	29.726	87.213
927.348	392.722	30.305	87.013
926.911	391.477	30.787	88.757
925.213	390.716	32.188	91.022
925.426	393.323	31.454	87.158
928.066	388.140	29.005	89.830
928.557	391.586	28.818	89.422
929.190	393.665	28.384	87.233
929.007	390.475	29.316	85.935
927.744	394.585	30.967	85.276
928.511	392.151	29.865	86.389
927.602	392.898	30.578	87.738
926.745	394.404	31.556	87.423
926.820	390.313	31.569	89.032
925.425	391.721	32.789	89.814
925.093	391.436	33.231	89.876
924.801	390.827	33.390	91.669
924.944	391.962	33.309	90.521
925.021	387.795	33.158	92.467
923.569	389.768	34.140	93.815
924.782	390.016	32.763	93.900
924.837	389.896	33.233	91.916
924.128	390.509	33.814	92.814
924.411	388.627	33.572	94.150
924.209	391.895	33.451	89.630
924.281	390.460	33.010	93.091
924.777	387.984	32.582	94.323
924.108	390.247	33.685	95.157
924.223	395.210	33.523	86.815
925.077	392.482	32.340	90.085
925.350	395.026	31.874	88.555
924.120	390.200	33.109	90.953
923.434	390.918	33.408	97.108
923.981	397.049	33.066	86.192
925.778	391.815	30.982	93.609
925.571	391.646	32.170	93.058
926.583	394.719	31.025	89.762
926.775	394.872	30.870	86.114
926.646	392.969	30.331	87.725
927.380	392.602	29.696	88.119
927.879	393.517	29.413	87.341
926.751	394.323	30.978	85.612
926.840	394.289	30.344	92.657
925.597	394.503	31.998	87.823
923.911	395.234	33.188	85.092
923.804	395.715	32.649	85.850
924.459	390.352	32.046	92.126
925.183	391.446	31.709	89.958
926.149	389.930	31.060	89.291
926.127	392.293	30.842	88.655
925.610	394.444	31.522	86.805
925.050	396.663	31.972	85.963
924.636	393.550	31.894	92.399
922.956	394.075	34.193	87.642
923.470	392.871	33.039	88.015
924.856	389.681	31.678	94.178
923.527	392.626	33.339	89.835
923.873	394.997	32.576	86.405
925.509	391.788	31.004	89.683
926.313	393.001	30.699	90.646
925.321	394.878	31.758	85.512
924.613	395.435	31.976	84.724
925.641	395.695	31.016	85.086
925.389	395.185	31.242	84.575
927.420	392.450	29.312	88.687
926.631	396.094	30.694	83.592
927.335	395.342	29.703	85.542
926.031	395.816	31.016	85.444
926.709	392.288	30.341	86.357
926.724	396.011	30.396	83.391
927.259	392.970	29.702	85.948
926.427	397.153	30.651	83.348
926.501	392.873	30.057	86.577
926.319	393.566	30.892	84.687
926.955	395.128	30.196	83.940
927.297	395.097	29.726	83.018
929.972	396.186	26.886	83.848
929.128	391.247	28.590	85.713
927.704	394.717	29.989	85.403
926.928	395.134	30.745	84.400
926.818	394.203	30.213	84.875
927.126	395.129	29.828	85.601
926.818	395.990	30.198	85.966
927.032	393.862	29.945	86.975
926.200	399.001	30.850	82.557
928.180	389.834	28.265	87.796
927.278	391.740	29.879	87.524
926.161	394.592	31.018	86.298
927.583	394.994	29.483	84.107
927.317	388.412	29.502	86.887
929.118	392.137	28.065	87.076
929.481	394.582	28.281	85.461
928.092	393.936	29.327	87.678
926.098	394.115	32.232	84.497
924.113	392.128	34.884	88.508
917.570	389.379	41.937	92.268
910.542	381.695	48.269	106.357
893.123	398.826	62.890	110.280
766.084	401.304	82.504	138.948
771.533	403.148	73.053	136.118
778.684	402.450	64.055	134.457
787.626	402.076	62.609	133.428
794.406	401.790	63.780	134.946
798.454	401.343	69.272	138.586
800.939	402.165	76.563	138.897
800.815	402.360	86.039	138.659
800.391	404.032	91.551	138.736
803.276	407.167	96.410	138.793
812.552	404.803	97.038	145.069
818.276	407.554	95.353	144.384
828.189	406.459	89.922	145.479
833.529	407.107	85.919	143.874
837.489	406.923	83.628	142.068
843.362	406.298	78.570	142.778
849.291	406.973	78.741	141.091
858.199	406.967	73.911	134.777
867.628	408.371	72.619	132.283
874.149	409.389	71.582	133.115
881.237	410.187	74.435	139.137
881.105	409.124	70.554	140.611
882.214	412.075	72.278	138.649
882.561	412.329	70.262	136.506
882.967	413.338	69.280	134.782
884.746	413.123	67.064	134.971
895.178	415.133	61.173	130.611
893.500	410.851	63.379	120.051
900.973	412.039	57.091	128.698
906.522	409.862	53.478	135.500
913.375	408.260	46.625	131.082
918.438	406.430	41.562	136.820
920.866	406.256	38.729	137.383
920.903	404.028	38.586	137.902
922.961	405.181	36.579	133.661
921.842	407.310	36.787	134.031
921.962	406.230	37.202	131.673
924.438	406.918	33.835	123.374
925.052	408.705	32.809	129.417
924.643	413.669	33.237	121.705
923.023	412.142	34.286	118.224
925.806	415.541	32.833	118.418
921.063	428.664	35.630	112.342
926.983	423.556	30.461	117.931
918.327	421.686	37.491	118.540
918.943	420.665	37.680	121.112
919.365	420.455	38.090	119.555
918.833	421.961	38.884	118.010
918.351	422.562	39.419	121.550
918.577	423.629	38.981	121.405
919.439	422.276	37.869	122.470
919.685	420.138	37.833	121.384
920.394	421.712	36.948	121.831
921.694	416.339	35.681	123.953
917.535	422.701	40.359	114.932
919.270	414.790	37.082	124.234
916.700	419.677	40.524	117.381
920.060	417.734	36.605	117.968
919.763	418.550	37.838	116.326
919.302	419.771	38.300	114.583
920.222	419.487	37.444	113.951
919.612	419.507	38.131	112.757
917.901	420.010	39.691	110.953
919.519	416.902	37.294	110.688
917.768	420.823	39.320	113.981
915.731	418.309	41.410	113.552
917.842	417.707	38.102	118.251
916.800	416.846	39.686	114.747
918.649	417.023	37.276	120.456
917.230	418.611	39.495	115.086
919.222	417.356	37.478	116.571
919.588	418.843	37.248	113.791
920.931	416.794	35.921	118.259
921.899	419.270	35.771	117.548
920.770	420.169	37.362	117.885
919.649	422.384	38.426	114.329
920.366	421.967	37.393	117.124
919.259	422.020	38.492	114.884
920.912	421.616	36.891	116.899
919.291	422.015	38.436	116.922
919.678	421.881	38.099	115.172
923.165	423.197	34.848	116.633
922.085	420.066	36.266	108.885
924.176	415.764	33.969	113.916
923.997	421.894	34.433	110.960
923.460	417.282	34.959	108.840
922.834	420.111	35.540	103.570
924.200	411.547	33.617	109.657
922.445	412.808	35.848	109.783
923.383	414.053	34.354	107.877
922.703	413.171	34.953	108.857
923.871	415.135	33.842	108.381
922.426	417.960	35.419	111.784
921.923	419.442	36.145	114.369
921.434	420.133	37.049	115.891
787.906	409.969	16.182	113.247
753.205	405.432	49.112	121.535
750.199	404.643	59.626	128.564
755.642	406.520	60.355	124.838
753.130	407.411	69.623	124.461
758.828	406.288	72.653	125.753
757.286	405.953	75.860	123.313
764.416	405.489	76.247	127.400
769.040	405.836	74.455	129.625
773.363	405.923	69.350	131.317
777.797	407.496	65.935	130.352
783.251	407.402	62.335	129.676
786.193	408.477	57.734	129.431
790.397	411.483	58.109	128.629
795.200	413.906	57.101	131.603
784.616	420.115	60.700	136.571
774.079	426.840	71.929	130.147
763.124	436.620	76.668	127.679
766.003	437.889	89.162	124.375
797.535	428.194	93.353	129.966
800.078	431.176	88.226	130.141
