0.000	367.000	70.000	39.000
4.234	364.782	63.562	43.649
5.294	364.333	64.932	42.870
7.721	363.842	65.402	43.122
11.101	363.546	65.219	42.452
13.589	362.332	63.493	42.680
16.207	360.362	64.366	43.951
19.281	357.965	62.396	45.525
22.089	358.710	62.312	44.230
27.716	355.938	59.024	45.785
29.150	357.593	60.133	43.508
33.985	355.483	58.152	44.979
38.452	354.360	57.244	45.867
42.875	354.457	56.538	45.188
46.376	353.935	55.351	45.222
47.422	353.923	57.134	43.921
51.261	352.756	54.692	43.645
51.640	350.181	55.376	44.848
54.374	348.366	54.728	45.196
61.474	341.437	51.964	47.462
59.528	336.771	53.408	50.070
64.227	334.774	50.619	51.648
62.083	332.488	55.745	53.528
64.664	331.698	57.477	52.782
62.973	328.111	62.406	54.264
69.160	326.352	60.123	54.798
69.230	328.535	63.389	53.363
67.100	328.406	65.874	56.234
65.631	328.619	68.198	57.134
60.005	329.378	76.014	56.285
63.319	327.343	75.184	59.065
70.815	329.546	71.745	57.291
79.536	320.938	73.069	63.673
86.271	324.928	72.168	57.448
82.245	333.928	76.835	48.190
155.907	321.197	64.462	57.880
98.981	336.235	61.491	43.539
107.824	329.111	56.421	47.663
110.291	326.201	63.935	51.172
114.483	293.343	75.687	77.586
162.333	285.258	81.932	84.562
108.488	274.890	86.554	74.688
148.452	286.725	85.307	87.001
139.787	296.191	101.923	78.259
129.276	279.109	82.873	72.495
115.747	274.298	71.351	61.137
115.090	276.546	66.847	58.230
118.436	281.428	59.040	55.702
115.580	268.196	61.822	68.057
111.265	279.934	71.293	60.558
110.534	309.659	75.574	60.670
99.854	322.252	77.127	53.518
107.496	323.467	73.469	53.107
113.481	328.382	71.074	48.377
111.015	328.710	73.268	52.868
119.662	329.150	72.766	53.830
128.471	332.656	69.902	52.136
129.076	325.647	67.856	56.927
156.172	278.294	55.602	49.557
162.498	280.206	53.892	42.077
159.618	281.601	58.085	45.053
160.367	281.773	60.802	40.008
162.450	280.949	64.160	43.163
166.508	284.201	65.241	42.357
170.651	282.617	65.600	45.717
172.946	281.226	66.150	48.128
173.972	282.361	63.994	46.795
176.231	283.624	65.812	44.509
181.991	283.256	62.379	43.714
180.589	281.071	66.019	45.524
183.060	280.191	63.324	45.403
185.131	278.795	64.503	46.699
190.008	277.884	61.204	47.320
194.372	281.298	60.773	45.209
196.545	281.642	61.699	44.995
198.940	281.627	61.630	44.212
201.496	280.465	61.963	43.090
204.522	279.388	63.762	42.902
206.640	277.453	60.572	43.307
209.955	276.359	58.793	41.824
211.877	276.317	57.397	40.765
215.889	275.195	57.108	41.565
221.316	274.049	56.195	41.152
226.753	272.453	54.825	40.550
231.806	272.356	54.942	39.915
235.670	270.793	57.531	38.723
239.573	267.659	58.734	41.154
242.432	265.083	58.372	43.703
244.195	263.553	58.416	44.244
246.405	262.979	58.691	45.251
248.970	261.467	58.800	47.203
250.357	260.555	59.483	48.281
252.288	260.715	59.586	47.998
255.441	261.953	59.687	47.329
259.238	260.713	60.032	47.888
263.273	257.924	60.442	49.414
267.753	255.974	60.625	50.626
272.740	254.901	60.478	50.121
277.272	254.769	61.299	49.213
281.589	256.313	61.648	47.992
286.100	257.058	60.522	47.384
289.391	257.581	59.978	47.053
291.470	259.305	61.385	46.313
293.460	260.819	61.763	45.945
293.636	260.596	63.270	46.890
296.142	259.351	62.896	47.506
297.056	258.062	63.277	47.344
297.238	256.769	63.263	46.536
297.948	256.224	62.671	45.466
298.285	254.951	62.281	46.125
298.200	254.829	62.305	45.964
298.830	254.740	62.289	45.903
298.555	255.407	63.177	44.980
298.468	255.601	63.098	44.812
298.289	254.536	63.307	45.924
298.051	254.921	62.952	44.756
298.830	253.171	62.972	45.581
299.520	251.857	63.214	46.365
302.203	251.941	62.056	45.585
303.205	250.862	62.733	46.549
305.330	250.912	62.533	46.242
306.736	250.591	62.681	46.807
309.203	251.174	61.577	47.111
310.846	251.946	60.887	47.300
311.848	252.346	60.718	47.679
313.919	253.238	60.156	47.243
314.801	252.536	59.940	48.416
316.919	253.013	59.536	48.338
318.585	253.105	59.410	47.846
319.002	253.105	60.489	47.940
321.106	253.740	60.314	47.532
321.847	254.435	59.993	46.891
322.600	255.601	60.187	47.725
325.210	258.326	57.062	48.184
327.245	258.089	56.610	50.116
329.549	257.033	56.070	53.074
332.383	259.649	53.922	54.227
336.078	267.738	50.154	52.620
341.171	276.105	51.819	50.160
345.117	281.247	53.017	48.407
349.722	281.788	54.627	52.859
350.087	283.451	56.725	54.272
344.429	285.385	61.636	55.710
345.673	286.864	54.905	57.777
346.910	295.992	52.821	51.606
345.549	298.088	50.657	50.747
345.850	305.592	51.711	46.855
343.787	304.525	52.303	46.214
340.088	306.143	51.278	43.643
334.071	310.750	54.331	40.198
330.808	314.219	56.520	35.222
331.051	312.812	55.872	35.542
331.184	315.223	59.055	35.434
331.763	314.575	58.099	36.008
332.257	315.424	55.141	36.025
332.338	315.710	54.470	35.954
331.380	314.862	53.601	36.324
334.135	304.612	50.974	42.821
332.176	314.076	53.536	36.632
325.204	314.461	57.613	39.001
326.336	310.950	56.145	41.333
319.873	309.314	62.039	42.314
316.488	310.357	63.755	41.923
311.473	310.145	66.491	40.312
309.202	308.295	66.126	44.949
312.517	308.413	62.635	44.819
317.406	309.739	59.342	43.109
313.018	309.491	69.719	45.418
302.741	286.339	77.505	59.242
301.672	292.348	75.055	63.606
281.552	294.065	76.171	60.881
284.345	290.972	75.804	65.274
290.822	305.121	76.926	50.879
279.567	319.694	81.495	46.019
300.881	317.583	68.624	41.243
339.233	329.046	47.422	37.366
337.527	324.784	48.657	41.612
339.510	321.548	51.096	41.504
337.693	320.416	54.567	37.944
332.657	320.578	62.306	35.615
333.126	315.418	65.088	38.477
334.827	312.432	68.646	39.421
345.105	309.041	62.890	41.084
351.831	306.384	56.917	44.516
354.739	301.828	58.464	46.463
357.482	301.502	59.728	45.745
359.361	300.295	60.591	43.715
362.506	295.660	64.343	51.493
367.950	294.950	65.309	51.287
372.681	291.922	66.026	53.571
377.031	289.434	67.243	55.206
381.540	287.385	68.950	55.055
387.482	284.681	68.781	55.258
390.803	282.166	68.923	56.425
393.685	280.083	68.900	56.631
395.059	278.603	70.891	55.976
398.938	277.556	70.784	55.111
406.153	276.729	69.307	53.368
408.713	276.909	68.552	54.151
411.439	276.463	67.545	52.363
412.121	276.982	66.973	50.743
412.229	276.819	66.177	50.209
411.156	277.160	65.028	51.400
409.081	276.816	65.604	51.655
406.055	275.548	67.144	52.229
404.076	275.538	68.312	50.896
402.835	275.781	68.000	49.334
398.799	276.271	72.722	48.638
395.178	276.730	76.744	47.755
389.164	277.785	80.942	45.837
383.615	278.459	81.046	45.698
375.757	282.726	74.332	47.103
370.959	285.736	70.282	46.506
367.627	293.448	69.338	46.174
362.923	297.741	72.716	43.931
361.824	303.289	70.026	42.130
360.942	308.993	70.365	38.793
360.507	313.751	70.780	34.301
354.541	318.440	76.588	29.137
357.856	318.574	71.324	31.105
357.985	321.116	71.818	29.603
354.101	320.948	74.992	28.806
352.316	320.368	79.271	26.405
354.233	319.420	82.577	26.428
354.956	320.054	77.933	25.180
357.292	321.392	77.768	26.119
357.208	322.321	77.709	24.965
360.561	321.661	75.573	27.590
365.919	318.233	74.389	29.154
360.724	322.185	74.554	27.716
365.805	319.695	70.429	26.382
367.111	318.172	67.637	27.494
363.816	317.589	71.250	29.065
364.645	316.913	73.748	25.615
365.550	316.008	73.491	25.485
361.714	317.190	77.241	25.711
364.196	317.646	74.452	25.543
363.701	317.965	76.642	25.937
365.095	318.645	78.063	26.129
372.319	317.663	75.448	28.527
374.817	315.799	78.906	25.622
377.941	314.935	78.792	25.696
380.667	313.146	75.664	29.080
392.513	313.342	75.759	25.733
398.375	312.494	75.460	26.318
405.770	312.089	73.554	27.118
412.464	312.181	75.453	25.900
414.812	312.042	77.946	23.652
419.482	311.252	75.449	24.993
417.442	311.719	77.142	24.471
422.771	311.221	78.434	26.097
