165.000	57.000	136.000	69.000
187.644	41.998	127.288	70.650
192.281	43.544	133.218	81.465
194.681	32.194	128.400	80.351
198.924	17.351	119.638	108.079
187.525	42.235	85.648	105.147
186.286	45.150	83.864	102.762
185.106	47.824	83.605	102.392
188.333	46.888	80.956	100.124
189.818	47.602	78.366	100.407
190.161	46.489	77.388	99.203
190.644	50.484	74.363	93.983
194.772	43.694	70.941	98.349
193.918	44.621	76.807	98.194
195.721	38.471	104.930	98.887
196.321	35.191	127.806	100.333
230.352	25.290	140.823	63.676
172.645	33.138	109.745	96.108
177.565	28.906	119.403	103.947
234.773	12.522	178.786	129.411
241.193	14.923	191.083	144.413
229.631	31.901	196.757	153.974
221.051	38.385	198.875	160.353
217.187	46.251	194.893	164.029
209.896	54.256	190.443	166.605
208.829	52.337	180.476	177.863
208.823	64.002	161.815	176.987
207.129	63.639	153.847	182.876
208.626	68.156	143.149	184.048
210.305	76.269	129.936	179.507
216.288	79.692	112.041	180.370
216.899	88.572	95.163	171.473
224.188	108.036	72.473	163.969
225.164	142.806	65.131	138.712
210.811	141.893	97.602	139.388
222.052	143.300	109.549	149.773
200.098	127.854	84.389	157.439
200.592	131.347	78.797	156.575
194.588	135.102	83.148	151.503
188.510	134.530	89.144	154.765
183.607	131.435	93.452	157.971
176.013	134.503	100.822	153.774
172.576	134.851	104.647	155.074
169.226	135.938	107.838	153.428
164.689	143.879	112.804	147.813
159.701	147.401	117.236	142.988
151.511	150.451	129.273	139.619
143.107	153.136	144.483	139.330
137.814	159.517	152.439	130.677
135.233	163.777	155.673	125.167
131.374	164.910	157.631	123.706
135.848	161.838	141.904	134.356
137.221	159.181	138.040	139.830
138.937	157.507	133.749	144.819
142.321	162.977	130.049	138.600
143.250	166.499	131.520	136.220
145.890	171.550	138.888	128.282
147.265	174.553	146.232	126.850
151.050	170.535	150.209	130.467
155.831	169.486	154.026	130.063
164.232	167.238	152.041	132.163
175.358	164.765	154.059	131.107
185.609	166.822	152.373	128.035
191.672	163.847	157.145	127.433
196.360	168.635	158.084	121.384
196.926	166.247	159.926	123.703
197.651	166.788	154.914	122.058
191.906	166.384	153.791	122.002
177.714	166.861	156.986	122.836
164.059	168.193	161.387	123.144
154.411	169.290	165.530	124.235
136.725	166.892	172.006	129.424
112.022	164.923	187.015	135.492
105.836	158.956	186.160	141.401
101.447	157.664	180.179	141.253
89.165	157.366	188.146	145.020
79.395	157.714	194.237	142.810
75.420	158.374	192.289	140.073
79.102	156.010	186.714	142.992
78.353	157.311	185.702	143.500
82.820	157.619	179.596	141.680
94.735	166.864	179.983	132.906
104.351	165.709	171.334	137.485
109.166	167.614	170.379	135.437
116.147	170.618	172.036	133.295
124.594	173.860	169.218	128.884
139.792	175.968	163.370	127.234
144.958	174.262	165.409	129.335
154.994	173.773	157.312	129.205
161.454	174.629	152.207	128.074
166.656	176.369	147.052	124.040
169.269	177.902	143.337	122.443
170.144	179.117	140.512	121.572
168.858	179.406	139.439	122.418
162.916	180.343	142.655	122.568
159.647	182.998	141.439	119.613
137.504	180.046	155.561	120.851
121.274	172.909	166.186	129.985
109.328	166.928	172.226	135.214
92.959	162.273	179.861	142.441
94.762	160.023	168.737	145.473
93.463	160.288	159.516	141.007
97.720	157.893	142.708	145.747
112.235	159.836	124.477	142.095
124.038	166.145	111.716	134.406
124.411	174.234	108.200	125.386
132.279	183.880	92.866	120.647
140.728	179.606	94.689	115.285
147.086	168.555	97.537	129.275
152.960	171.380	92.231	125.979
160.867	171.467	84.513	129.416
170.601	172.720	69.329	131.290
163.309	192.569	61.025	111.526
165.501	174.415	57.722	122.649
151.441	163.367	77.938	133.520
113.257	165.676	128.857	132.729
103.647	168.755	142.073	130.242
87.550	177.916	155.938	114.328
87.209	182.409	144.513	106.760
94.271	182.440	121.728	112.251
99.203	182.500	105.100	114.281
105.440	198.471	73.194	99.285
105.396	212.372	66.273	92.385
107.902	212.123	64.608	88.071
119.217	214.243	65.760	84.879
123.739	208.781	71.284	97.666
133.435	208.933	69.181	102.527
145.660	208.596	63.892	95.605
155.738	211.234	61.037	97.614
164.858	216.197	54.942	92.870
175.006	221.221	53.438	91.294
179.303	213.739	54.855	103.827
173.062	207.245	75.726	112.276
164.027	201.020	102.187	117.528
158.682	196.275	111.984	121.014
133.144	188.985	154.225	129.969
135.663	187.047	154.450	131.310
143.167	185.959	140.719	126.707
168.910	182.957	109.105	129.143
173.081	189.224	106.363	119.884
197.919	185.351	82.973	117.857
198.055	182.183	97.011	116.149
197.463	177.797	108.677	123.218
197.327	177.730	111.101	124.240
200.335	179.282	114.036	123.052
205.796	179.151	109.877	126.778
216.329	178.376	99.605	130.338
228.038	178.431	85.811	133.426
228.314	187.651	77.722	124.024
234.004	189.051	60.065	123.029
227.249	190.627	66.956	123.107
206.919	193.526	91.530	123.109
194.533	189.013	103.881	131.936
188.592	188.379	107.171	134.326
185.946	192.615	107.499	131.760
187.932	194.355	102.533	132.181
192.450	196.744	97.214	131.052
212.937	200.639	80.183	124.060
218.274	206.537	81.156	121.188
236.121	208.042	70.334	118.758
249.319	216.533	66.391	110.130
306.586	154.993	92.560	121.635
291.122	150.426	105.595	125.709
278.999	149.994	114.954	123.948
266.160	153.423	122.506	113.967
244.048	159.049	136.060	100.742
232.636	158.937	140.913	101.103
222.146	155.203	142.727	110.629
215.590	158.100	146.364	109.925
212.506	156.829	148.500	112.377
214.451	156.311	143.685	114.136
214.218	156.704	144.275	113.736
217.254	158.712	139.701	111.727
218.677	162.664	140.333	110.195
219.379	164.294	145.219	111.502
224.449	166.203	145.031	110.888
234.295	168.759	147.085	110.993
261.620	175.315	137.769	103.129
279.227	177.285	135.414	103.529
303.446	178.990	140.746	106.196
327.179	178.751	129.233	109.843
351.591	174.349	143.311	120.349
397.977	175.215	129.028	122.153
428.273	174.096	117.566	115.879
442.391	172.695	123.925	127.888
452.631	171.348	125.379	126.753
464.418	184.795	124.221	105.952
489.267	199.273	125.159	89.149
504.601	199.492	121.170	100.548
502.161	196.478	127.029	110.108
496.560	191.843	132.807	114.844
487.800	187.608	136.918	114.858
465.360	186.759	140.807	103.271
456.926	186.676	130.683	97.054
445.876	187.807	130.743	91.650
437.681	185.009	120.402	93.968
429.625	185.049	116.766	93.152
420.480	180.817	99.993	88.976
402.078	177.198	105.414	87.237
319.675	152.207	140.966	112.209
313.928	152.961	152.025	113.706
315.915	152.962	150.822	114.840
317.501	152.774	152.028	115.838
314.125	151.426	156.555	117.218
305.574	153.410	160.490	117.646
298.611	152.220	157.949	123.755
281.755	153.611	159.648	126.194
268.471	159.600	138.983	135.118
261.104	161.614	133.387	132.998
248.202	168.854	128.278	127.455
241.736	174.063	90.798	130.079
216.669	177.996	77.795	136.637
166.058	199.449	109.291	120.409
136.329	203.855	139.773	118.326
127.669	203.577	144.288	120.887
126.709	203.683	143.680	121.085
129.551	208.582	139.068	116.039
138.851	211.715	134.089	110.294
152.653	215.092	128.535	102.492
168.467	216.861	119.429	97.134
186.538	213.504	100.527	95.793
209.004	211.925	79.430	90.715
344.388	163.823	74.642	87.309
329.216	155.032	137.583	97.058
312.785	146.905	138.217	113.962
296.265	139.944	140.981	121.520
282.901	138.257	143.738	129.700
271.875	137.841	145.060	132.225
268.968	142.963	143.690	127.412
267.687	142.437	146.644	128.593
266.320	144.092	146.645	128.146
267.280	148.589	148.571	124.431
277.607	151.588	147.546	126.293
291.482	158.119	143.694	121.957
307.662	168.705	146.161	109.035
332.913	173.490	136.688	108.236
353.232	174.799	137.050	116.464
397.200	171.190	115.508	136.607
421.620	180.671	97.867	119.863
444.856	197.487	84.560	110.293
467.281	211.034	87.564	90.508
468.184	198.036	106.908	98.298
485.013	199.587	117.890	100.202
487.955	207.134	123.608	92.814
493.419	203.246	130.469	103.004
495.222	196.387	129.729	110.981
495.627	186.135	130.502	120.788
484.071	173.470	131.050	121.299
471.579	171.100	137.967	109.343
460.759	166.080	140.531	108.368
295.824	160.204	126.250	105.095
300.408	163.741	136.478	95.510
307.037	160.760	152.963	108.227
313.380	156.983	151.372	118.308
318.046	156.402	154.732	123.331
318.394	155.836	173.537	126.769
321.015	159.429	150.401	124.318
321.651	165.312	151.398	122.826
320.324	167.510	149.824	124.117
315.120	171.803	147.453	122.322
310.366	175.411	149.947	120.738
306.927	177.017	146.866	120.444
292.645	181.202	145.525	117.633
283.627	185.993	142.649	113.610
276.445	190.713	132.473	108.287
256.420	196.601	133.799	102.123
237.509	197.032	130.690	108.858
212.959	191.431	117.910	119.933
188.850	189.897	127.263	121.831
175.895	195.239	122.850	119.111
166.927	194.629	118.449	117.875
147.402	195.572	130.317	121.664
139.230	197.268	125.244	123.763
138.359	201.442	119.356	123.625
141.289	205.351	111.102	118.828
148.879	204.477	100.447	117.692
163.895	207.434	84.896	112.504
193.722	204.152	58.796	110.154
195.504	204.699	62.038	108.919
202.799	205.394	63.504	113.841
215.013	203.885	63.447	113.654
223.708	197.106	61.945	120.300
229.266	187.742	69.902	116.146
231.761	179.883	67.138	115.203
231.955	160.460	73.245	123.796
236.312	154.363	70.095	126.113
238.654	152.671	67.090	127.836
244.983	136.446	61.299	136.700
249.404	127.701	61.325	129.652
257.117	127.515	54.785	130.855
258.145	127.893	54.760	129.207
257.293	129.150	55.283	125.039
249.566	127.199	59.680	126.066
250.859	132.059	53.691	127.474
249.452	143.717	54.102	125.220
242.472	152.503	57.334	123.246
238.513	164.165	61.284	122.817
224.639	174.345	68.323	117.319
220.573	183.451	64.992	116.208
210.550	196.875	75.605	115.300
205.255	208.289	74.044	117.919
204.730	212.939	71.965	118.165
201.187	217.278	71.009	111.429
198.044	217.510	69.246	108.211
196.129	214.404	73.569	111.537
189.648	217.059	78.924	107.762
188.158	216.465	81.469	103.578
180.781	218.885	89.938	100.871
161.788	221.462	110.186	97.603
147.670	220.344	123.564	101.362
135.090	213.650	136.586	113.792
127.406	214.179	143.650	113.261
130.686	209.884	141.323	113.315
132.952	206.628	131.442	107.229
142.527	202.025	119.727	105.200
156.963	192.540	96.612	111.317
180.727	186.441	65.772	113.270
193.673	187.268	53.259	111.591
200.233	189.624	49.464	105.349
204.496	181.709	48.990	110.740
207.417	177.766	47.886	106.630
207.784	176.567	49.069	104.720
208.473	156.734	51.666	124.144
204.485	162.366	61.276	115.418
204.728	164.891	64.348	113.559
205.835	154.888	71.259	115.227
195.025	164.066	76.053	116.980
195.536	173.375	83.447	114.829
203.471	140.869	72.528	125.992
208.504	128.630	67.654	131.516
212.564	120.741	67.512	138.485
213.624	118.140	70.598	139.274
216.844	116.512	76.066	139.271
218.488	110.967	77.954	143.864
224.654	103.424	78.233	136.707
223.662	99.768	76.164	136.351
217.405	104.053	68.749	135.535
220.223	112.090	88.822	118.092
213.111	115.323	84.260	104.977
203.658	107.040	115.286	105.590
193.100	113.826	140.255	94.819
189.014	124.736	153.494	87.208
370.537	115.564	134.921	92.437
388.466	101.390	121.160	116.601
406.002	108.512	80.829	116.153
399.877	123.197	83.498	103.361
411.696	134.045	64.784	92.871
398.539	113.575	88.699	108.792
394.694	115.651	110.154	109.740
389.321	115.020	120.321	112.461
215.491	129.970	113.920	120.133
212.328	132.984	122.234	114.589
212.314	133.189	124.296	112.223
212.861	123.494	119.349	125.638
223.164	119.397	98.271	132.327
229.149	124.514	85.099	126.211
237.006	124.083	76.651	125.133
235.284	140.872	83.360	105.488
359.646	106.656	102.940	99.202
365.893	107.328	137.206	75.934
221.523	132.505	119.630	86.655
206.214	133.484	128.628	91.065
366.323	70.520	123.490	100.870
208.150	145.320	139.897	85.837
220.701	148.154	135.107	86.707
231.188	145.285	134.089	94.109
247.125	141.771	130.222	101.354
263.735	139.910	125.522	104.889
276.615	143.060	137.988	102.988
291.434	136.450	139.838	103.468
304.979	129.153	147.263	106.220
319.818	123.411	149.944	103.358
324.753	121.105	159.206	100.120
343.878	120.431	155.914	93.132
346.767	118.337	159.782	92.922
354.834	120.638	149.788	88.514
211.709	80.105	148.302	89.572
205.111	83.032	142.285	88.326
199.241	87.386	139.830	81.139
193.054	90.306	143.039	81.767
187.067	89.922	142.905	85.706
177.864	89.526	149.299	88.371
181.175	89.903	145.271	89.760
173.613	88.204	149.576	92.762
175.250	88.516	149.322	91.451
175.792	89.751	142.796	88.658
175.326	86.652	142.358	90.864
184.076	84.589	130.059	96.868
196.197	78.936	104.737	116.369
200.695	70.272	97.827	123.714
189.630	67.577	115.765	128.306
171.708	70.034	135.997	127.033
165.874	76.993	149.066	121.096
167.160	82.807	150.870	111.333
171.971	83.651	147.037	119.770
177.550	85.350	143.977	124.314
183.400	86.338	139.080	127.828
185.552	86.666	137.272	130.059
183.925	90.950	143.350	128.468
183.296	91.531	145.522	130.387
183.350	89.566	145.952	132.176
184.678	88.089	140.909	131.948
184.617	84.226	134.861	134.859
189.247	78.915	125.215	136.430
195.974	74.697	113.496	139.531
207.870	74.190	100.521	134.304
207.775	82.814	102.749	120.284
190.746	86.490	131.761	90.155
199.845	87.394	138.104	74.288
361.484	121.022	119.205	104.518
200.470	70.930	151.289	127.449
352.722	115.917	164.621	123.828
335.959	119.219	154.761	123.435
317.992	120.385	158.998	125.225
217.247	80.954	194.270	135.982
310.755	119.139	151.322	132.093
318.060	119.292	145.303	132.844
314.696	130.496	139.701	123.490
245.787	101.150	153.563	146.762
246.920	80.093	153.619	134.852
254.115	87.160	159.070	152.756
261.443	87.261	152.774	97.507
271.834	91.698	152.864	69.677
308.172	98.109	131.201	62.559
335.344	87.733	131.565	82.334
348.374	89.670	123.492	94.817
387.531	83.537	95.188	119.701
395.072	84.021	93.081	130.570
423.459	91.896	77.026	135.482
436.492	110.529	71.592	124.119
438.615	142.679	74.319	103.633
434.072	148.112	91.291	105.700
435.237	147.962	96.594	105.027
435.883	143.607	105.143	114.572
436.034	146.600	106.120	113.719
440.083	150.317	105.223	111.696
442.020	153.569	102.366	109.904
444.014	149.194	100.493	114.258
439.490	147.979	102.747	120.993
439.417	151.379	96.949	119.709
442.511	152.052	91.314	120.319
444.298	156.513	75.512	119.192
447.698	155.495	52.459	120.641
426.337	149.934	90.952	124.586
412.570	151.493	117.175	115.542
414.155	158.935	127.906	100.121
250.184	151.150	79.537	96.344
195.571	155.459	124.437	99.699
194.787	157.084	115.365	113.115
194.285	160.022	109.633	116.696
195.918	164.604	102.781	119.003
197.642	170.540	100.045	117.416
197.665	174.675	94.724	116.873
194.055	177.575	95.049	115.947
190.516	180.867	96.349	113.364
187.494	182.350	99.533	114.976
185.438	185.052	97.363	112.137
184.686	185.950	94.879	113.075
185.872	186.281	79.732	113.259
184.365	187.549	65.746	113.188
180.871	191.869	58.123	107.566
172.169	189.748	56.839	108.190
162.048	189.099	60.384	106.196
144.663	188.450	72.283	101.722
128.398	183.047	84.922	105.296
114.259	181.277	91.073	102.202
101.519	179.564	98.770	99.587
91.872	176.166	103.271	98.395
84.890	175.305	107.554	94.089
83.894	173.610	105.331	94.665
84.763	174.329	104.605	91.686
89.139	174.575	99.870	91.832
95.363	173.224	97.477	94.166
103.118	173.527	96.443	96.116
110.136	176.017	94.567	96.139
119.010	178.005	93.643	98.475
124.420	180.659	99.627	101.795
128.288	184.917	106.264	100.398
131.062	193.220	114.731	98.128
132.435	196.940	122.270	102.522
135.049	198.058	124.975	106.234
134.529	197.708	129.416	116.381
134.380	199.500	132.869	114.650
121.024	202.835	147.752	120.142
112.954	199.450	154.057	126.501
108.906	197.014	154.122	125.671
106.383	197.074	148.148	122.641
106.927	199.069	142.448	118.190
110.198	200.527	124.315	113.338
109.476	198.301	121.240	117.693
105.472	196.204	125.825	122.099
98.505	193.510	136.520	124.298
95.992	194.728	146.152	127.661
96.324	194.045	149.575	124.995
103.917	197.148	140.933	118.574
112.336	196.852	127.455	116.961
121.583	193.377	111.293	119.398
130.038	192.769	98.737	121.121
135.072	187.727	87.133	126.196
139.112	185.262	81.613	126.330
141.169	185.399	76.846	125.584
141.541	188.038	77.837	118.880
139.317	186.152	70.632	107.443
129.237	186.233	95.878	99.441
112.535	182.219	128.622	108.000
102.399	176.157	150.127	115.883
105.694	173.187	150.254	124.976
102.743	164.865	148.807	134.445
124.705	167.892	113.903	129.741
130.318	171.770	95.666	128.035
153.586	172.509	71.775	121.114
148.511	177.096	87.948	115.332
143.892	176.898	99.655	113.386
143.759	175.856	107.976	115.182
145.471	174.041	108.318	117.129
150.774	173.729	103.299	119.881
161.572	171.171	88.815	122.441
163.980	172.389	85.862	121.804
173.901	181.646	70.252	111.084
181.200	177.026	66.540	115.935
173.468	176.442	82.840	118.595
164.455	175.511	100.089	119.720
153.197	175.117	121.517	118.574
141.523	177.713	137.826	112.047
134.806	183.963	143.379	99.765
131.524	184.600	139.909	96.027
132.414	184.938	131.730	94.647
136.888	183.722	120.329	99.206
145.096	182.073	102.867	100.602
153.439	200.044	75.494	85.838
159.589	197.611	74.625	100.754
164.052	183.396	93.888	99.973
166.867	182.514	105.492	96.805
174.745	177.599	107.417	111.488
167.780	178.947	74.414	121.818
169.997	198.517	62.474	95.874
163.451	196.506	65.815	94.227
156.422	190.388	72.271	100.572
152.014	189.487	75.858	97.677
149.011	191.210	72.583	93.448
145.781	191.067	72.253	92.760
140.555	186.532	77.983	96.109
129.929	184.635	95.561	98.793
115.659	176.510	117.149	107.858
112.111	173.316	116.259	114.969
92.489	164.444	146.321	122.629
83.500	153.758	162.774	129.846
88.863	142.543	148.977	139.081
93.643	139.299	134.348	141.171
129.586	138.113	84.417	139.431
138.662	157.553	64.089	106.642
140.830	152.719	75.016	100.151
146.710	140.681	77.816	109.688
147.614	139.949	83.824	112.707
157.706	135.611	86.135	111.540
164.256	136.680	83.780	115.274
171.570	138.884	86.326	111.429
175.650	139.521	87.275	109.666
180.621	144.268	85.699	108.504
186.923	142.238	87.292	109.260
189.715	139.235	86.709	113.343
192.938	136.590	87.771	115.990
204.521	127.116	80.261	121.814
212.104	120.246	82.525	118.418
218.410	115.305	84.479	112.776
221.035	108.836	91.524	110.129
224.004	103.008	98.867	112.592
226.835	93.089	105.279	117.515
229.785	82.923	110.631	126.208
229.930	76.320	124.659	131.143
228.836	82.352	128.244	122.652
229.362	79.973	136.070	124.335
236.644	79.298	128.142	124.067
239.865	88.913	126.588	114.413
248.535	96.796	128.335	108.895
255.691	99.364	127.516	110.650
263.491	101.296	130.507	111.217
271.870	104.489	134.388	110.097
280.063	107.744	138.306	110.234
301.007	84.746	161.799	118.475
318.703	74.104	146.514	143.218
323.897	78.412	138.084	139.136
323.263	78.979	142.130	138.113
319.071	83.220	151.708	135.583
320.007	87.286	161.401	134.877
317.589	89.158	165.737	133.863
310.585	90.494	173.718	133.418
311.280	95.316	168.758	132.357
309.345	92.770	165.227	136.022
316.041	96.719	145.395	132.518
313.520	97.579	150.784	133.599
301.997	101.057	170.799	130.127
316.848	103.229	174.617	124.188
328.495	106.114	186.984	121.939
386.918	108.356	148.652	113.917
411.146	114.744	141.483	103.194
429.450	115.137	141.071	103.909
460.138	118.951	129.362	101.944
469.725	122.707	131.032	98.721
488.694	123.265	130.160	101.724
498.613	128.119	126.959	95.273
506.462	130.311	126.335	97.931
511.198	126.564	123.596	105.357
512.160	126.005	123.990	108.596
510.066	125.801	123.872	109.774
503.476	126.868	129.374	106.967
495.581	125.905	130.164	108.210
490.181	126.074	130.068	106.460
482.581	125.975	129.333	107.556
469.946	123.066	127.913	108.649
458.552	120.998	132.062	110.374
454.108	119.095	127.790	110.833
441.483	117.253	129.659	111.156
430.417	116.379	131.407	109.301
409.395	113.429	134.523	110.991
400.250	111.888	133.670	112.039
390.093	109.711	133.767	113.015
381.501	111.342	137.879	112.496
376.244	113.204	139.355	110.471
326.928	111.449	166.894	112.335
338.877	111.370	147.858	114.454
323.950	109.983	155.185	123.118
317.052	113.375	157.553	125.694
318.439	115.363	156.099	124.097
319.739	116.341	150.549	124.656
320.991	116.553	145.973	124.024
319.613	116.196	148.105	123.989
318.828	117.651	148.924	122.555
319.844	116.660	147.191	124.339
319.623	116.859	147.711	124.300
319.693	117.322	148.278	123.677
319.915	118.044	148.864	121.373
318.654	119.553	150.886	116.120
318.376	119.137	152.232	116.363
315.983	113.776	158.996	131.393
316.423	106.554	164.723	143.140
315.610	102.448	168.344	151.794
314.121	96.814	174.998	162.514
324.266	99.003	167.098	164.283
343.847	110.498	156.162	162.991
348.406	131.328	153.583	141.319
359.369	152.111	149.416	122.320
363.645	151.680	147.320	121.260
365.051	154.149	145.173	119.673
367.151	156.253	144.002	117.921
368.735	154.354	142.443	121.166
369.578	156.892	141.855	120.163
371.039	159.402	141.130	119.924
371.651	156.495	140.322	125.291
293.358	39.380	128.740	106.943
283.049	39.614	139.837	103.121
284.896	32.950	136.164	105.378
280.626	23.635	137.481	109.332
277.604	16.666	139.648	108.815
271.115	8.552	142.716	104.106
380.404	183.332	142.677	119.538
380.911	183.306	139.084	116.961
379.161	182.002	136.318	118.000
376.237	178.407	137.671	117.786
368.907	168.798	137.099	118.019
367.392	157.139	135.834	120.196
361.605	150.135	136.700	118.066
357.329	142.476	136.412	120.400
348.857	135.308	139.171	117.793
317.334	96.933	161.000	138.907
284.046	87.423	187.491	139.896
272.919	98.923	185.354	121.089
279.456	104.623	183.185	124.418
276.343	107.843	153.516	132.925
280.332	97.677	152.840	153.865
282.790	92.901	150.556	163.795
284.796	93.751	149.615	167.588
286.386	120.436	147.908	146.472
288.313	118.994	149.289	147.727
291.152	118.340	149.766	151.712
293.094	132.371	150.119	138.486
295.310	144.899	146.052	126.653
296.722	141.566	147.539	130.042
297.786	142.345	146.198	129.435
298.649	136.706	148.083	134.363
299.702	143.616	145.137	126.789
299.908	144.254	145.369	126.889
299.320	142.243	145.956	129.466
298.179	143.320	145.620	129.294
296.149	144.918	146.027	130.093
291.551	152.363	146.993	127.245
288.928	155.942	145.026	125.309
284.308	159.604	144.045	124.436
281.888	160.892	141.492	126.858
279.712	164.508	140.250	127.938
273.236	176.833	141.745	120.694
271.619	179.482	143.105	120.128
269.820	183.423	144.348	117.824
271.122	185.276	142.463	116.171
272.446	184.479	144.515	117.256
279.238	182.825	140.528	112.270
286.747	176.564	137.859	114.264
293.979	167.171	135.751	117.500
298.537	159.573	136.475	116.887
304.538	151.442	134.760	115.367
315.440	86.307	142.144	158.958
318.851	79.685	137.116	159.938
321.861	88.922	151.827	142.892
319.214	100.142	161.166	126.452
322.463	105.340	162.562	121.005
324.587	110.583	163.370	120.715
317.981	114.232	173.218	122.009
320.059	117.597	171.990	122.807
307.843	116.498	175.367	125.527
312.209	117.184	177.467	126.322
296.604	112.050	141.750	137.503
305.860	108.639	168.624	142.909
298.514	121.194	131.905	134.640
297.220	127.615	109.944	130.743
294.508	129.359	98.726	133.144
297.221	143.744	71.521	119.124
294.102	140.474	67.619	123.651
292.033	141.599	69.643	129.594
292.831	147.221	74.651	126.762
463.253	122.611	67.352	128.158
463.714	132.405	56.674	117.148
463.049	137.525	55.857	117.126
459.436	137.881	52.765	113.768
454.070	142.443	56.120	108.727
440.055	143.624	62.437	108.655
438.401	144.942	66.984	113.541
434.110	145.280	67.490	119.496
434.249	145.526	68.044	120.848
436.805	145.491	65.595	123.916
428.645	148.195	74.736	131.344
259.161	114.356	116.795	114.904
237.273	108.334	137.510	114.771
230.824	113.337	142.392	99.176
227.370	115.571	141.830	90.694
220.715	113.288	143.507	93.505
220.830	111.597	138.624	98.295
227.970	109.706	131.524	107.594
235.826	112.101	127.805	112.459
246.803	114.935	123.218	117.450
253.503	117.615	124.760	120.680
265.287	136.558	177.451	134.886
341.821	164.828	143.230	120.423
269.920	124.906	125.366	121.218
268.025	126.927	129.378	118.873
268.248	126.947	132.531	120.841
267.241	127.725	138.636	117.110
271.985	129.145	141.546	114.418
274.990	130.236	144.096	109.815
283.115	131.126	141.048	107.894
295.464	130.139	138.808	110.378
299.532	127.688	140.988	131.134
296.501	126.776	151.088	135.581
296.043	125.486	153.655	138.137
296.575	128.755	155.264	139.154
296.712	128.571	153.695	123.545
302.623	131.972	151.039	120.280
305.503	132.022	149.698	115.601
306.993	132.978	148.659	117.225
306.240	132.588	149.480	119.187
307.188	133.521	148.830	119.748
307.894	135.150	149.328	121.707
309.332	135.206	146.276	121.289
308.022	135.963	147.417	118.990
308.225	136.985	147.237	118.892
307.496	136.769	147.427	119.128
307.151	136.962	146.817	120.243
307.392	137.166	145.332	119.230
305.459	138.262	146.574	118.972
304.620	137.572	145.718	119.037
302.818	138.707	145.314	119.771
301.334	139.116	141.930	122.170
299.343	138.030	141.939	122.931
298.445	138.292	141.934	126.415
298.152	138.378	142.016	126.268
297.303	138.513	142.308	127.775
296.475	139.710	142.934	132.358
296.274	138.571	143.307	130.121
295.995	137.421	144.218	133.812
295.682	137.729	146.020	132.833
295.421	138.536	147.336	132.846
294.180	138.419	151.718	134.916
294.960	138.586	151.495	134.894
298.235	138.943	148.262	134.886
300.814	139.417	145.062	142.853
304.219	138.064	138.320	144.625
289.804	131.760	144.683	158.147
285.005	131.065	145.511	163.197
277.753	128.168	149.646	117.823
267.262	124.710	156.786	114.117
259.477	128.246	152.877	109.721
250.762	121.997	150.085	120.151
242.447	116.144	151.180	128.835
241.017	111.148	147.596	138.742
241.622	110.402	138.869	143.152
247.644	107.857	116.858	149.730
280.084	127.504	72.468	141.689
279.213	154.323	65.911	134.141
283.881	136.069	72.703	136.647
275.234	139.333	99.334	139.374
269.465	145.386	116.780	136.921
264.452	151.682	126.323	131.653
263.424	153.544	125.484	130.556
263.423	155.165	120.501	129.520
264.676	154.947	118.194	131.069
263.483	156.083	117.269	131.663
258.383	156.503	121.348	129.027
254.168	158.944	123.700	125.337
252.551	161.141	123.427	121.893
248.632	160.966	129.314	120.103
247.167	161.782	136.202	118.943
248.289	164.850	133.831	115.953
250.778	163.251	214.224	119.008
247.351	163.812	148.258	118.501
251.345	163.438	143.063	115.437
251.578	165.242	141.635	112.869
258.117	166.676	139.066	110.840
267.186	166.995	141.044	110.170
273.853	164.623	158.536	113.832
282.008	164.566	151.483	114.784
290.264	162.332	146.020	115.280
291.648	162.948	155.493	110.569
290.823	163.593	161.921	109.488
290.827	163.248	170.331	110.026
288.373	162.714	176.674	110.577
290.409	162.383	177.335	111.016
292.575	161.482	177.072	112.496
295.385	161.230	174.997	114.683
300.130	160.602	170.849	115.473
302.850	159.217	167.450	120.237
308.399	158.450	159.532	123.591
312.264	159.648	145.220	133.100
305.058	160.281	155.283	137.700
298.174	163.113	139.835	138.274
288.352	160.540	158.089	144.104
287.764	163.552	137.615	144.836
352.083	182.788	145.524	129.005
374.946	192.606	130.741	118.869
393.663	187.623	116.243	124.018
248.511	181.917	75.742	123.620
229.547	181.766	89.615	119.870
212.370	184.143	111.587	119.113
202.701	181.798	125.854	123.276
195.637	184.135	134.636	122.124
193.236	184.281	140.635	123.129
191.069	186.638	146.168	120.515
403.353	170.908	127.693	130.911
396.409	169.994	144.967	124.442
391.321	175.652	153.028	115.017
391.602	173.568	154.219	113.433
385.672	172.324	154.975	111.665
382.053	168.812	148.794	111.563
372.340	165.529	142.792	110.667
357.905	164.008	145.679	110.343
347.348	162.776	146.807	108.139
337.955	159.775	141.977	112.390
283.065	164.642	169.035	129.422
298.139	153.970	155.824	135.331
296.628	152.501	161.914	137.315
300.219	151.858	156.003	135.670
301.420	150.524	154.262	136.383
300.884	148.909	155.898	137.478
303.139	153.142	153.034	134.139
303.322	155.500	155.618	130.725
303.719	158.600	158.410	126.884
300.045	159.690	162.927	126.030
299.987	160.084	167.213	124.624
296.081	160.316	173.889	125.700
296.512	161.415	175.417	124.879
298.979	161.483	172.323	127.153
296.913	161.259	171.063	127.405
300.482	161.202	168.158	127.184
298.205	161.460	169.909	125.906
297.665	160.849	168.894	124.866
299.710	160.115	162.854	123.735
301.145	160.297	157.136	122.055
302.040	157.105	154.465	122.005
303.824	153.656	143.929	121.686
304.529	152.247	138.911	121.775
304.295	149.714	136.856	123.434
304.250	148.417	137.459	124.970
302.193	149.573	140.399	122.509
301.488	150.313	138.535	124.572
300.410	151.122	139.164	124.092
300.130	153.255	139.540	122.295
299.604	155.732	141.040	120.166
298.037	158.860	142.797	117.080
297.234	160.803	143.266	114.432
296.929	162.447	143.248	113.052
295.921	162.801	143.057	112.504
296.127	162.733	142.242	114.320
296.270	162.923	141.250	112.661
295.906	163.063	141.263	113.043
296.179	162.758	140.250	114.152
296.169	163.101	140.657	112.868
296.594	163.468	140.220	112.639
297.149	163.772	139.381	112.692
297.836	163.407	138.513	112.486
298.146	163.631	138.645	112.237
297.869	163.813	139.296	112.481
298.078	163.668	138.988	113.522
297.954	163.894	139.562	113.295
298.288	164.604	139.148	112.733
298.646	163.774	139.536	113.909
298.942	165.073	138.931	112.705
298.508	164.935	139.960	112.604
297.685	164.489	141.805	113.493
299.159	164.295	140.019	114.075
299.179	164.504	140.533	112.996
299.525	164.526	140.671	111.828
300.509	163.468	139.761	111.932
299.953	163.365	141.571	109.271
299.837	162.447	144.962	108.987
299.560	162.589	146.259	108.095
299.560	162.351	146.658	107.662
299.557	161.813	148.418	107.801
300.203	160.781	148.509	108.365
300.410	161.422	148.880	107.956
300.253	160.879	150.516	108.440
300.908	160.912	150.169	108.052
301.049	160.573	148.419	108.559
301.119	160.472	148.565	109.113
300.255	160.693	149.680	109.051
299.008	160.972	150.406	108.459
298.303	160.309	151.333	109.190
299.564	158.712	149.935	110.719
297.222	157.638	151.557	110.625
295.677	154.002	149.701	107.509
292.327	152.234	148.267	102.574
288.142	149.075	151.220	96.622
286.255	144.611	146.543	89.885
285.486	139.977	142.425	84.619
278.560	135.326	147.778	77.775
271.970	132.221	155.205	65.156
266.120	129.903	153.139	60.545
262.160	128.785	151.956	56.953
264.129	124.449	154.476	54.979
264.385	123.660	154.814	51.590
266.654	122.864	151.010	50.527
266.607	121.056	150.151	49.820
268.333	119.111	149.109	49.707
271.718	115.496	142.577	50.544
282.231	115.533	131.971	45.323
279.584	114.406	133.613	40.028
277.605	112.182	135.413	36.282
274.538	107.992	138.177	40.264
275.791	103.393	137.123	45.412
273.437	94.409	142.790	48.131
271.168	84.980	141.310	52.119
267.310	76.114	145.642	54.977
259.993	68.160	153.673	61.626
261.357	65.913	150.769	63.579
259.518	61.336	149.678	80.358
254.526	60.002	157.860	69.016
253.826	62.626	157.941	59.016
258.430	64.276	153.368	57.995
255.807	67.846	152.698	59.931
257.798	71.340	155.572	50.797
258.232	71.946	154.091	50.383
260.545	74.271	152.189	48.929
262.622	78.083	151.568	46.937
266.648	82.064	147.341	47.450
269.699	85.075	149.525	46.139
272.047	87.452	144.587	45.520
274.290	89.882	141.378	49.439
274.476	91.958	141.768	48.433
274.910	92.313	140.725	49.053
282.936	95.632	133.274	49.091
278.272	98.206	140.178	46.045
282.200	100.214	136.866	43.688
278.632	103.177	143.265	41.558
278.928	106.592	144.012	39.337
273.427	104.591	149.322	44.943
273.904	107.493	152.295	42.557
271.649	106.451	153.658	45.700
274.755	107.009	152.645	45.884
273.554	108.759	153.162	44.072
271.729	107.536	151.916	47.679
269.396	109.798	147.689	52.820
270.700	111.363	145.829	44.208
269.137	112.878	148.675	45.306
271.215	112.992	143.874	45.001
271.142	115.623	142.400	45.698
274.015	118.726	138.392	47.128
276.470	122.382	136.619	49.176
277.092	125.186	137.748	52.398
286.426	125.400	129.852	56.049
274.887	125.384	151.005	61.062
275.795	126.850	152.553	65.242
273.864	125.418	155.554	72.082
279.623	119.091	150.217	79.735
286.127	118.209	146.619	84.609
292.695	118.793	147.017	107.364
302.232	119.773	141.365	116.488
307.708	120.709	145.840	114.695
305.238	122.260	161.835	104.519
258.884	147.733	188.112	114.992
307.508	124.307	178.735	119.244
346.781	122.088	156.438	87.306
224.552	169.779	156.022	107.076
227.351	168.663	144.781	113.371
233.476	171.176	134.610	111.425
391.083	140.873	143.879	97.112
401.571	144.223	146.631	100.156
399.598	147.783	153.525	100.803
405.908	147.989	147.911	102.651
411.812	151.571	148.946	103.974
414.095	157.208	149.437	101.601
414.697	156.650	149.682	106.231
413.050	152.975	156.799	113.241
412.291	156.121	158.576	112.841
410.909	155.926	162.521	115.088
410.926	159.161	162.403	115.332
407.891	159.247	160.087	115.696
405.401	155.771	159.393	120.408
409.502	144.831	156.220	133.909
410.939	140.633	151.902	139.252
418.247	136.126	117.179	142.881
426.331	143.652	86.833	134.641
432.239	146.521	79.176	132.171
432.401	150.686	70.356	126.683
434.703	152.113	55.178	127.706
428.301	164.114	60.860	100.133
436.807	165.742	47.413	106.429
431.600	151.570	60.432	123.456
426.923	148.744	76.469	128.424
418.038	145.871	91.446	125.868
269.767	146.482	71.391	135.304
274.878	148.918	64.276	134.029
265.278	149.801	71.725	131.462
261.595	151.705	75.435	129.749
254.907	152.474	81.638	123.853
244.185	153.832	93.159	117.394
230.764	152.592	108.825	112.797
224.166	152.826	115.417	111.808
219.353	154.066	120.702	111.859
220.611	151.629	122.878	113.472
221.106	151.791	123.745	113.574
225.469	144.624	125.542	120.524
230.990	150.901	130.117	114.797
353.501	154.900	130.102	123.538
339.585	152.741	135.647	125.209
337.557	153.896	127.924	121.469
305.275	150.858	142.348	122.040
252.375	151.070	149.421	117.037
256.051	142.618	155.283	121.866
262.696	148.471	153.288	117.770
270.156	148.039	153.646	116.810
271.933	149.160	152.432	115.313
275.932	150.760	147.602	115.481
274.407	152.148	149.726	114.849
275.891	152.894	148.537	114.615
279.843	154.896	147.398	114.128
278.673	154.033	149.920	116.435
281.642	155.195	149.292	117.108
286.820	155.618	148.037	118.296
287.078	158.407	148.584	115.390
289.893	159.409	147.562	114.462
295.074	161.188	142.227	113.262
296.384	162.360	143.167	111.931
297.811	163.085	142.206	111.492
299.997	165.057	139.934	109.608
302.084	164.009	138.490	110.436
304.933	164.795	135.214	109.204
306.277	164.457	133.767	109.116
307.775	164.199	132.355	108.945
308.651	164.252	131.307	109.229
309.247	164.076	131.062	109.194
309.099	163.250	131.127	109.917
309.743	162.480	132.198	111.141
309.979	163.276	131.901	110.656
309.456	163.098	133.674	111.407
308.935	162.725	133.760	111.824
308.835	163.514	133.673	111.448
307.260	162.894	136.520	112.247
307.244	163.849	137.089	111.980
305.941	163.057	139.233	113.655
302.775	162.794	142.850	115.057
295.890	162.221	152.880	122.009
293.667	164.078	159.745	122.928
291.018	162.786	168.630	126.024
307.244	166.142	159.202	123.041
337.304	166.966	137.186	124.626
360.696	170.352	118.059	121.661
374.136	165.492	105.609	127.169
383.630	162.844	97.518	127.912
398.560	161.980	77.299	127.591
407.936	161.293	59.691	126.225
403.858	160.577	61.907	126.198
408.007	174.295	70.172	113.211
392.739	161.226	98.014	120.379
388.852	159.000	108.741	118.342
384.890	161.485	122.035	107.557
381.336	166.193	142.330	95.670
389.812	164.738	144.272	96.552
252.898	179.721	135.078	111.442
254.553	181.427	136.655	109.884
258.164	177.338	136.744	113.329
268.664	177.367	133.283	108.602
272.101	172.434	135.665	112.215
276.787	172.377	137.979	110.272
280.008	166.182	135.323	115.726
283.657	161.946	137.488	116.328
289.145	150.029	135.199	126.146
294.825	141.871	131.689	134.477
299.032	141.288	133.133	133.616
306.708	140.433	142.667	133.807
311.743	144.846	138.756	128.824
311.772	141.430	130.520	130.980
309.231	140.714	132.722	133.387
304.411	140.992	138.049	132.427
299.084	140.168	148.078	131.195
299.344	140.620	148.146	131.452
297.314	139.992	147.533	132.680
296.556	141.810	146.547	132.032
299.104	141.420	138.606	134.386
297.928	144.312	140.938	132.893
292.350	146.303	152.495	128.673
312.038	146.536	142.479	128.756
303.685	149.167	163.829	121.099
335.629	150.714	144.217	113.445
348.277	152.782	137.055	106.766
356.997	152.732	145.015	102.285
375.103	151.190	151.016	101.795
369.654	151.548	149.529	98.780
369.928	151.898	151.309	99.549
368.330	151.598	150.458	101.531
364.345	151.873	151.239	101.482
353.475	152.202	146.187	103.258
274.053	156.850	140.053	126.570
284.353	150.159	178.907	134.920
283.387	150.963	185.162	129.205
291.861	149.245	171.698	129.169
300.332	146.315	147.801	128.525
303.106	144.005	139.556	130.875
300.259	144.181	138.596	130.457
301.368	143.294	137.934	130.625
300.872	144.730	137.602	129.447
292.079	147.153	152.021	127.468
295.479	149.944	154.356	123.405
287.562	152.301	165.527	124.119
324.163	155.133	142.795	118.148
344.797	157.712	135.534	110.167
345.676	161.595	146.939	104.845
349.945	162.376	150.268	101.669
354.912	162.168	145.330	102.019
350.071	161.707	147.185	102.617
344.003	161.696	149.212	102.882
321.585	161.983	159.967	107.388
338.153	161.402	137.846	111.909
284.604	157.917	187.563	128.604
307.302	156.260	156.152	126.931
282.644	155.305	170.345	128.046
293.491	155.712	155.239	123.558
298.199	154.077	147.726	122.504
302.429	151.238	140.707	123.690
304.412	149.836	138.055	123.079
304.362	147.671	139.933	125.010
302.589	147.361	143.211	124.166
302.064	147.811	144.490	123.262
303.008	147.659	144.673	122.799
302.992	147.153	145.249	123.920
303.307	149.021	146.143	122.237
304.213	150.192	144.393	119.675
304.212	149.527	145.062	119.842
303.721	150.560	145.729	118.691
304.788	150.878	146.784	117.022
305.054	150.370	147.371	117.336
306.141	149.540	147.870	118.240
310.040	151.653	144.781	113.392
310.218	152.093	147.978	113.085
312.173	152.121	146.448	112.331
312.362	152.461	147.192	112.219
310.823	152.849	147.100	114.804
307.255	152.781	146.705	114.866
299.784	153.161	148.985	119.102
290.311	153.234	149.955	122.523
286.064	153.047	144.927	123.952
273.610	155.509	142.803	119.636
253.284	154.266	155.627	123.012
241.677	155.165	160.154	122.080
234.263	153.410	162.797	127.403
228.595	151.396	166.403	126.708
224.965	149.426	168.718	130.928
226.271	148.946	167.992	133.389
231.348	147.926	166.721	134.909
238.964	148.218	165.558	135.213
255.331	150.956	156.715	132.733
281.533	153.114	145.575	128.994
297.007	148.774	143.138	130.680
307.571	146.760	150.099	130.482
312.759	143.373	156.661	130.002
319.860	140.482	159.597	133.198
323.459	136.844	163.519	132.167
325.616	135.819	160.280	138.834
323.760	134.722	170.991	138.880
319.194	135.140	171.573	138.349
314.594	136.472	168.536	130.533
309.852	141.065	162.494	125.814
304.460	143.177	155.941	129.914
297.535	147.161	144.341	125.697
289.047	146.978	140.059	131.963
280.940	143.318	140.500	137.405
255.926	140.461	159.606	141.366
237.559	126.812	171.153	152.171
232.143	118.659	174.921	159.649
226.352	115.502	180.458	162.259
226.490	114.389	180.586	162.812
230.314	117.231	177.833	161.625
249.323	122.720	163.262	161.568
264.004	131.196	152.995	154.509
271.638	131.992	153.006	153.207
279.123	133.056	152.326	148.899
296.074	138.128	147.459	140.467
306.174	142.693	146.662	129.876
309.331	141.188	154.153	131.325
310.994	139.985	160.831	128.440
312.380	139.438	161.959	124.122
312.911	137.022	163.239	121.788
313.316	135.966	163.994	118.577
313.652	136.076	165.696	117.964
312.425	133.564	167.204	122.873
311.656	132.967	161.950	129.387
307.885	132.243	157.836	137.770
299.256	135.125	159.471	143.333
288.074	135.681	167.685	148.314
283.524	133.905	164.583	154.838
272.804	134.031	164.530	159.586
261.396	134.061	166.999	159.964
233.491	130.302	184.406	163.810
231.188	126.462	187.567	169.782
225.179	123.708	192.599	171.683
225.255	124.869	194.647	170.883
229.098	127.548	190.306	166.931
241.423	136.025	189.161	153.791
253.000	145.132	187.579	141.761
257.165	149.688	195.495	140.592
281.931	148.654	184.180	138.493
315.492	149.395	162.505	135.162
295.155	146.657	186.500	132.856
306.299	145.821	178.338	129.568
307.702	144.968	176.215	128.696
311.629	145.719	169.572	123.818
309.022	145.175	166.416	122.829
310.906	142.478	157.687	119.626
310.824	141.904	154.208	117.621
312.768	142.121	152.015	112.225
312.470	142.094	150.394	110.807
311.815	141.051	151.225	110.331
311.519	142.024	150.101	107.557
311.227	142.900	151.219	103.854
312.617	141.935	149.562	100.642
312.851	142.785	148.603	95.727
311.128	141.954	150.750	94.269
310.761	142.830	152.280	87.902
309.289	141.045	156.156	86.713
308.617	140.313	156.301	82.592
305.659	139.390	159.307	78.703
302.128	136.857	164.016	77.273
302.030	134.110	162.974	67.957
302.586	135.131	163.671	64.286
305.620	131.198	160.191	62.489
307.748	132.789	158.247	58.932
306.782	130.297	159.964	60.565
310.027	131.469	157.366	59.522
308.617	131.314	156.678	60.717
308.810	127.589	153.243	66.681
309.707	126.376	153.112	69.283
314.180	125.768	143.230	72.963
308.809	123.887	155.093	78.395
308.110	123.304	153.429	81.238
312.707	119.924	152.988	84.671
313.535	119.243	150.164	86.043
311.779	119.319	151.229	86.927
312.014	119.541	156.171	84.774
313.713	119.479	154.843	84.016
313.686	119.205	158.103	81.175
310.717	115.364	161.426	81.291
310.645	107.427	161.760	89.487
313.249	89.386	154.439	105.207
316.447	78.931	151.385	113.472
334.722	67.557	134.578	118.094
312.391	74.576	158.341	107.330
347.731	53.739	131.608	91.731
299.303	124.638	145.480	55.546
308.090	123.492	136.124	53.453
309.182	120.824	139.810	51.357
347.565	27.802	131.985	89.532
342.233	22.412	139.667	108.063
310.757	63.079	149.329	113.845
297.221	85.422	156.966	101.424
284.443	93.104	165.326	100.621
316.919	92.989	132.787	97.887
314.295	96.417	146.629	95.482
286.727	90.778	152.714	84.340
321.504	110.296	153.921	76.202
330.042	91.362	145.716	91.651
229.719	70.363	139.939	88.714
281.183	88.760	116.100	89.881
280.549	82.550	125.165	102.096
280.625	82.756	146.296	90.498
286.000	72.769	128.843	90.366
270.905	69.874	136.294	81.145
258.841	70.150	145.309	79.857
256.827	67.353	110.056	112.357
260.183	68.117	127.665	107.735
272.924	66.087	112.095	109.759
263.013	75.645	112.817	108.898
271.898	72.457	131.078	102.867
274.430	71.827	132.868	90.172
268.794	67.019	141.875	75.095
262.238	68.899	110.503	111.309
262.128	85.398	89.862	107.729
258.630	88.137	73.820	99.590
245.579	93.662	85.072	92.910
248.453	79.193	89.962	106.350
238.227	68.980	102.647	113.672
229.933	55.474	153.968	47.534
240.336	46.891	137.745	55.432
238.239	35.680	139.115	54.846
240.021	31.142	139.341	49.177
247.640	29.796	141.335	47.905
252.463	26.937	141.219	54.569
257.490	26.543	133.761	47.982
266.325	25.195	126.624	46.107
272.573	24.817	123.112	42.600
280.373	23.212	123.996	48.301
275.902	21.914	125.751	43.073
276.049	20.239	120.155	48.893
280.336	15.723	125.709	50.790
277.995	13.635	137.445	46.068
281.154	15.812	133.309	45.868
278.516	18.834	140.266	43.502
279.550	14.458	139.759	47.650
275.668	12.973	135.590	47.716
280.699	13.339	135.744	46.882
281.095	15.046	135.378	47.971
282.288	14.393	143.080	45.930
279.733	12.537	150.786	48.324
283.803	6.951	146.477	52.545
294.290	4.844	140.345	53.647
278.596	2.742	145.829	51.959
284.986	1.370	138.542	56.936
288.535	2.068	135.349	52.905
287.709	1.709	133.047	54.245
286.666	1.709	129.202	54.113
285.377	1.464	127.532	55.516
282.641	0.415	135.167	56.107
278.214	0.000	141.272	55.482
269.843	1.395	141.319	57.690
265.813	1.481	132.025	63.731
260.327	5.525	150.676	55.686
257.486	4.853	170.422	59.812
246.463	6.154	176.178	57.380
245.476	7.157	209.969	60.554
261.420	10.669	212.389	63.646
249.057	12.187	224.600	64.634
314.417	14.727	189.654	73.287
353.019	21.434	153.840	71.072
362.039	29.862	143.762	60.622
362.240	28.848	137.256	60.051
361.464	28.224	132.725	62.810
359.876	27.782	124.341	70.054
356.107	29.857	131.039	69.065
339.964	36.419	120.682	68.488
336.531	37.308	132.623	69.445
337.918	39.026	123.832	72.290
339.936	38.285	122.481	79.883
348.203	39.044	113.818	85.378
364.673	41.098	85.778	102.282
367.835	89.606	74.036	73.168
388.331	103.733	74.656	75.691
390.863	107.255	82.394	82.938
405.507	111.521	73.929	88.652
416.532	106.738	80.296	100.426
433.428	113.960	65.800	107.403
438.609	122.679	61.252	108.723
439.395	126.438	67.016	113.653
438.833	126.139	72.057	117.459
440.476	132.962	76.499	124.720
446.264	152.100	77.742	126.348
452.521	165.842	74.280	122.789
458.359	172.891	72.700	122.838
467.465	183.797	66.717	118.627
471.311	190.388	64.632	118.589
479.727	209.531	62.781	105.554
480.231	212.529	64.831	102.902
489.624	217.148	56.988	102.019
483.633	220.091	63.727	99.006
464.558	190.944	86.702	109.605
497.535	205.967	59.491	110.531
502.331	209.946	59.907	108.519
494.046	212.913	74.781	103.586
493.722	209.379	87.557	110.206
490.455	206.429	103.379	119.203
480.892	196.741	132.166	134.205
479.014	189.663	142.246	144.933
476.140	190.310	150.375	142.619
464.881	189.088	165.757	138.056
465.255	188.172	167.414	134.972
465.746	188.279	167.561	130.697
466.610	188.509	162.195	130.202
464.653	165.819	146.232	137.153
450.895	159.605	156.211	146.644
466.757	144.664	141.950	166.875
517.266	197.830	102.560	115.372
520.829	199.134	91.717	114.486
518.212	199.299	88.141	117.671
511.207	199.307	91.231	117.799
492.361	185.508	89.538	119.335
480.051	182.778	91.563	111.111
465.578	176.800	97.649	108.686
461.935	171.382	92.830	105.764
449.965	155.756	93.945	111.054
332.514	126.482	113.315	132.963
357.418	124.792	105.401	131.037
376.783	129.075	101.276	120.683
407.405	135.599	91.001	110.295
405.188	140.059	99.353	97.391
404.323	144.501	121.223	98.477
403.314	141.878	141.606	106.624
401.943	141.516	153.725	112.934
401.496	140.886	157.083	116.434
402.337	140.142	156.038	120.203
405.745	138.942	154.937	124.724
406.169	139.160	153.891	128.742
404.078	144.844	154.124	127.458
399.979	145.303	154.158	129.772
396.004	149.944	153.772	128.358
380.731	158.263	149.812	122.723
368.464	165.893	148.458	115.287
354.553	172.433	134.347	109.947
342.887	176.533	121.923	111.256
325.550	173.769	103.937	130.839
290.555	171.185	102.122	139.158
285.087	172.505	86.924	142.207
269.296	174.244	88.164	135.914
256.505	175.312	78.786	138.316
247.106	176.238	85.251	145.245
226.252	177.389	100.841	137.787
211.684	176.217	122.391	145.687
200.781	179.601	141.709	138.200
198.822	185.952	149.201	132.576
198.594	189.131	152.431	128.321
202.160	196.147	153.807	122.819
205.899	194.979	154.138	126.902
217.152	200.027	153.577	122.393
466.395	166.469	103.383	127.870
448.758	164.469	162.372	109.871
430.841	160.117	156.037	90.250
419.151	155.679	152.053	88.686
403.615	154.267	150.729	86.540
260.337	184.593	134.925	117.059
261.480	179.615	134.932	117.007
262.642	174.702	134.032	114.792
261.380	174.441	137.232	113.642
335.697	155.004	158.862	97.434
334.252	154.366	148.159	99.152
330.433	156.633	150.121	97.154
328.071	159.642	149.906	98.005
314.007	160.703	165.943	103.516
333.128	160.155	147.313	101.902
316.228	162.165	167.245	98.691
333.273	161.166	150.768	98.098
336.087	159.739	149.732	100.108
326.377	157.522	157.121	100.984
326.782	156.479	154.657	99.892
322.011	155.448	158.792	98.930
322.253	154.408	154.359	100.818
316.955	154.006	156.565	100.419
317.509	153.546	151.003	99.156
316.168	152.489	151.041	96.479
314.998	151.064	151.999	96.246
314.928	151.313	149.988	92.088
310.684	149.698	152.768	89.020
302.630	148.445	159.817	80.246
307.317	141.074	151.932	81.313
309.154	138.676	148.231	73.250
299.904	135.945	154.587	70.048
298.852	131.624	154.138	64.484
276.177	122.909	164.886	55.763
270.693	119.169	171.710	47.297
283.666	113.573	157.121	47.855
286.559	103.352	138.998	56.621
296.814	98.874	126.937	76.244
285.493	83.568	99.945	85.786
246.672	86.171	87.520	102.223
231.912	89.969	117.415	89.124
235.634	80.944	147.987	49.859
235.107	71.263	157.439	46.889
238.713	60.033	161.664	57.228
237.945	47.941	172.233	64.840
238.083	42.977	169.351	69.163
239.904	44.188	168.232	70.557
238.550	38.866	170.211	75.950
229.664	59.104	172.825	75.997
253.816	4.622	147.466	115.606
272.890	9.770	138.098	109.450
272.369	4.845	143.392	107.924
270.409	29.605	134.847	122.487
270.998	11.830	137.443	125.511
274.616	7.203	139.297	129.188
271.273	14.996	131.606	134.216
268.837	9.511	132.755	128.546
276.138	6.617	125.848	124.819
278.872	75.756	143.760	72.669
273.098	84.413	149.184	60.298
273.653	90.452	148.051	55.318
276.023	82.171	157.715	60.946
280.634	84.486	159.603	63.702
283.191	84.949	162.300	65.931
281.930	85.241	163.203	67.973
286.169	85.756	157.968	68.662
280.813	85.912	163.358	70.570
285.032	88.132	166.417	68.476
283.834	86.058	167.847	70.751
286.362	81.196	164.614	73.806
278.592	82.946	170.859	71.448
290.478	83.250	164.077	69.399
281.967	83.859	171.985	73.564
283.651	84.346	176.090	80.575
281.824	84.261	175.298	84.203
285.216	89.645	174.205	79.162
287.788	94.648	173.288	70.728
284.279	100.052	177.239	62.426
282.383	108.086	180.535	54.850
290.250	111.673	167.024	51.439
290.617	113.575	166.046	50.438
287.469	115.415	170.999	50.065
292.762	117.136	166.212	50.671
292.108	119.165	169.167	51.430
292.328	121.162	168.384	49.728
294.186	121.776	168.074	50.302
296.805	122.634	165.058	50.887
299.811	123.078	162.019	50.812
300.372	123.786	160.475	52.544
301.737	123.117	158.395	58.165
301.753	123.525	158.045	59.474
306.918	124.259	151.645	59.432
308.621	126.023	149.207	58.173
308.822	130.067	150.895	53.069
307.908	132.224	152.106	51.619
310.654	132.878	149.779	54.186
311.508	135.419	150.771	54.421
310.329	134.743	151.811	55.263
313.105	136.821	151.045	54.313
310.542	136.835	152.972	55.254
311.396	136.431	153.276	55.595
310.726	136.652	154.415	55.951
310.146	136.729	155.313	55.688
311.575	137.509	155.547	56.742
310.996	136.011	154.556	61.931
315.461	135.398	152.633	62.038
317.030	134.854	152.238	64.948
316.184	136.551	146.630	67.085
320.713	134.437	143.377	75.150
320.145	134.572	139.057	76.252
321.737	134.637	140.809	76.600
321.670	133.586	143.934	77.684
321.035	134.012	143.488	76.641
317.450	135.487	143.097	72.283
311.808	135.058	149.223	71.200
313.282	135.943	147.442	69.215
310.428	136.174	150.241	67.882
310.825	136.531	150.088	65.932
310.349	135.906	152.216	61.780
312.114	136.839	150.005	60.755
314.301	136.435	148.003	61.016
313.269	136.680	147.609	58.622
317.075	136.172	146.534	58.507
319.250	136.852	147.668	57.621
318.943	135.365	145.609	59.684
318.938	135.666	146.960	60.826
317.933	136.386	152.640	56.996
318.796	137.734	151.608	62.842
318.360	134.846	152.724	75.426
316.864	132.053	151.746	85.568
319.912	136.083	148.393	85.995
320.644	137.622	147.708	87.931
323.502	141.532	149.411	87.053
323.236	141.825	147.808	93.001
325.390	141.876	147.835	93.308
325.209	141.441	148.970	95.668
323.636	141.294	150.090	96.610
322.214	140.458	151.874	98.542
317.694	139.799	157.741	100.544
313.818	138.491	165.173	103.562
310.943	138.998	172.123	104.578
303.030	140.744	184.014	103.499
296.191	140.522	192.040	107.788
289.008	142.909	199.855	110.139
285.639	143.440	193.698	112.310
278.670	143.862	206.885	115.089
274.771	144.370	208.725	117.107
269.321	148.065	187.262	117.447
271.757	144.868	221.674	122.695
260.320	150.441	207.698	119.307
289.294	144.520	211.806	122.717
243.057	155.811	206.808	118.070
286.305	147.899	218.533	122.327
364.182	147.198	153.504	116.787
365.933	146.956	155.124	114.383
372.758	148.456	154.044	111.675
380.364	149.885	156.090	110.362
389.291	151.436	156.233	109.677
399.390	152.397	151.433	110.177
408.485	157.417	152.470	107.388
415.645	160.545	156.099	107.616
423.767	164.921	155.394	107.041
427.197	169.510	155.908	104.720
434.436	174.835	157.722	108.457
437.449	177.906	153.334	110.710
440.277	182.595	152.854	109.525
443.393	186.417	153.549	111.493
445.551	188.907	151.641	115.287
454.397	191.184	156.764	122.987
460.672	190.250	159.872	122.496
471.760	188.186	163.429	126.672
480.820	186.613	158.664	129.284
490.021	182.647	154.387	133.308
517.608	184.961	126.696	124.029
532.077	185.876	105.659	116.416
546.741	199.309	92.635	102.021
544.407	197.764	99.682	101.152
543.616	198.553	104.861	101.202
541.299	198.780	105.386	104.779
538.607	199.044	102.067	104.289
539.200	195.111	95.049	110.784
538.618	197.301	83.674	108.461
535.864	194.125	71.065	113.911
543.095	193.909	67.044	114.822
521.141	196.829	62.501	115.913
502.586	196.811	89.323	115.594
487.406	189.574	113.988	125.843
459.025	187.491	152.991	126.968
455.994	186.390	155.784	123.848
451.674	187.113	157.407	114.580
455.221	187.507	145.021	111.308
464.423	182.643	120.378	114.710
470.127	184.639	106.198	113.705
476.014	181.966	88.010	117.187
480.826	182.958	76.519	118.367
481.873	187.398	76.184	116.386
477.436	187.576	87.357	117.711
475.641	191.165	99.873	117.828
467.145	191.544	134.794	125.273
466.304	197.199	153.580	125.817
471.536	195.081	165.315	134.658
479.816	194.789	165.804	133.631
486.227	192.449	167.391	137.488
496.950	192.488	160.207	132.468
513.913	192.901	146.322	131.654
517.451	194.822	144.727	125.698
534.012	196.259	115.473	121.357
539.769	194.403	105.530	122.287
542.857	198.104	97.845	116.657
544.788	205.244	81.619	105.894
541.908	203.535	82.932	106.401
536.340	197.420	82.473	111.430
534.253	192.805	80.917	116.618
531.258	189.857	74.435	118.652
529.834	194.604	63.148	114.037
531.640	209.155	62.206	104.358
525.764	204.912	58.818	103.210
515.320	201.646	53.004	95.768
505.213	204.254	69.612	110.860
480.285	194.460	106.910	119.800
469.746	196.631	130.276	120.294
459.781	191.373	151.109	120.089
460.294	190.810	150.001	118.148
461.025	191.505	153.409	118.102
469.165	192.727	147.836	112.155
471.945	192.994	146.158	107.690
472.346	192.150	147.743	106.829
472.437	191.626	148.893	104.279
473.171	190.875	150.271	104.578
476.130	189.178	147.050	104.713
476.061	189.251	146.933	102.960
477.070	189.101	145.882	102.729
478.355	189.189	144.955	103.092
477.381	189.886	145.552	101.988
479.062	189.743	143.361	102.161
478.187	191.026	145.240	101.939
479.147	190.879	144.222	102.676
479.302	191.833	143.829	101.853
479.871	191.652	143.262	102.651
480.853	192.384	141.086	103.429
480.736	192.391	140.727	104.764
481.255	192.973	140.616	108.330
480.063	193.601	140.084	108.557
479.543	193.883	138.140	112.849
478.523	195.407	134.168	113.168
476.567	194.799	134.161	118.674
473.847	195.511	136.406	118.277
472.499	195.739	135.702	121.568
470.506	198.355	138.281	119.826
470.822	198.111	137.438	120.012
471.636	197.253	135.876	121.781
471.464	197.173	135.899	121.924
471.281	197.013	135.670	122.534
471.377	198.895	136.585	122.572
470.821	200.010	137.346	122.154
471.444	200.393	136.908	122.797
470.645	200.460	137.958	121.955
470.011	200.882	140.257	121.919
470.006	201.666	138.781	121.471
469.507	201.263	138.372	124.708
467.451	200.638	140.224	125.524
466.897	202.113	138.712	125.119
467.626	201.977	137.472	124.570
467.657	202.598	137.563	125.692
466.974	203.558	137.683	126.144
466.482	204.323	138.538	125.611
466.413	204.245	139.077	125.561
466.360	203.915	137.638	126.056
466.880	204.219	139.208	125.350
467.081	204.179	138.831	126.458
467.363	204.428	141.892	125.421
466.915	204.683	140.962	126.466
464.920	204.801	141.401	125.400
464.131	205.013	144.081	125.471
462.724	203.951	143.771	126.752
460.640	205.007	145.306	126.575
457.094	204.465	146.505	125.978
454.989	204.995	146.681	125.809
452.786	207.123	146.377	125.702
447.989	206.644	145.412	126.488
445.952	207.093	148.920	128.135
444.560	206.727	148.129	128.644
442.968	206.945	146.844	128.422
442.626	209.710	146.971	127.590
441.740	210.243	146.640	128.133
440.950	210.250	146.978	126.448
439.957	210.764	148.177	126.692
439.751	211.535	145.715	126.212
439.908	212.479	146.104	125.541
441.158	213.891	144.593	125.521
440.747	214.128	144.715	124.895
439.430	213.177	146.273	126.761
437.528	214.612	149.716	126.285
436.479	212.652	148.892	127.749
434.157	212.374	150.535	128.787
433.721	213.663	149.837	128.180
432.992	214.563	148.906	126.814
432.610	215.264	150.150	126.059
431.219	216.380	147.409	125.020
430.910	217.587	143.768	122.596
430.755	218.781	141.491	120.507
430.402	218.666	141.973	120.444
429.544	217.237	141.138	121.975
428.099	217.821	141.998	120.942
427.766	219.147	142.915	120.000
425.916	217.701	145.024	121.998
424.587	217.538	148.816	121.750
424.639	216.958	148.870	122.495
424.514	217.128	150.238	122.420
424.941	217.921	149.667	122.381
425.397	218.120	149.688	121.865
426.329	217.254	148.408	122.705
426.964	216.867	148.035	123.593
426.959	218.286	148.276	122.000
426.491	218.571	148.073	121.682
425.460	217.046	148.865	123.077
425.811	216.801	148.926	123.822
425.761	217.428	148.147	123.281
426.033	217.334	148.302	123.083
426.107	217.174	148.128	122.982
426.521	217.504	146.890	123.221
426.010	217.128	148.252	123.712
425.653	215.457	148.619	125.551
425.665	216.910	148.285	124.971
426.528	217.735	149.473	124.381
424.533	216.407	150.499	125.132
425.395	215.855	150.237	124.604
425.955	216.457	149.129	123.770
427.162	217.530	145.807	123.056
426.336	218.722	149.499	121.018
426.343	218.509	148.619	121.357
426.499	218.094	149.031	121.770
426.640	218.273	148.822	121.267
427.203	217.964	145.875	121.680
425.875	216.228	148.865	122.899
425.067	215.881	151.096	123.610
425.006	217.247	150.638	123.179
424.566	217.601	147.343	123.201
424.535	217.561	149.018	122.892
424.263	217.013	149.595	123.930
424.320	217.042	150.691	123.761
424.439	216.410	149.821	124.221
425.597	216.348	148.819	124.931
426.454	218.233	147.327	123.033
426.157	217.431	148.808	122.851
425.504	214.956	149.769	124.353
426.386	213.624	149.962	124.805
427.116	213.735	150.206	121.875
428.529	211.007	148.743	123.396
430.297	211.120	151.536	118.549
434.441	210.664	149.357	116.462
438.424	207.344	145.917	116.128
443.055	208.907	142.795	111.845
446.161	206.278	139.284	111.811
448.592	204.584	136.608	110.911
449.224	203.409	135.081	110.932
449.586	202.178	134.282	110.102
446.800	202.594	135.633	110.200
446.403	202.973	138.952	110.663
445.427	204.922	141.943	106.742
444.654	204.728	143.908	108.600
444.151	205.762	146.290	110.304
444.647	205.593	147.466	113.747
445.770	205.321	146.214	116.351
446.443	205.955	148.007	118.993
445.404	207.700	153.320	119.943
445.381	206.632	154.150	124.038
445.667	205.112	154.862	126.009
446.586	205.885	153.728	125.948
445.608	206.309	156.541	128.419
445.480	207.311	156.644	128.557
445.581	207.615	155.247	128.524
445.386	208.691	154.613	128.095
444.503	208.890	154.154	128.232
444.192	210.058	154.284	126.902
444.049	209.748	154.078	127.669
442.886	209.592	154.112	127.514
443.140	209.270	154.162	128.479
442.763	209.197	153.964	129.023
443.021	210.709	154.481	128.930
442.615	211.054	155.208	129.466
442.498	211.186	155.495	128.968
442.808	211.740	154.661	129.158
443.155	211.440	154.354	130.036
442.979	213.231	154.129	127.932
442.829	212.558	155.607	129.211
443.481	213.072	156.316	128.359
444.032	212.377	155.125	128.892
444.828	211.580	154.527	129.162
444.847	210.503	155.927	130.201
444.728	210.039	156.856	130.548
445.151	209.571	159.149	130.789
445.818	209.333	158.826	129.979
446.095	208.255	160.377	130.864
447.072	206.990	160.502	132.362
448.085	207.698	159.950	130.711
449.024	206.766	160.019	131.076
448.863	205.477	160.622	131.736
450.037	206.362	159.036	129.966
449.746	207.436	160.054	128.089
447.786	206.213	162.170	129.941
447.518	207.079	159.850	130.229
446.671	206.683	160.326	131.885
444.928	206.766	159.219	132.734
445.355	207.727	158.119	131.195
444.428	208.301	158.341	130.942
442.874	207.886	158.333	131.374
442.746	208.375	157.801	129.424
443.005	207.641	158.133	131.585
443.532	208.289	157.829	130.542
443.496	207.940	158.382	132.230
443.708	207.880	158.285	131.275
444.532	206.970	158.043	132.303
444.110	207.512	159.181	130.974
444.216	207.192	159.792	132.145
443.984	206.424	158.472	131.596
444.854	206.621	158.914	132.026
445.477	206.391	158.213	132.945
445.584	206.131	157.396	133.347
445.419	206.900	156.939	132.906
444.267	207.050	158.667	133.654
443.400	207.498	160.253	132.860
443.721	205.900	158.560	134.534
443.300	205.088	159.810	133.391
443.505	202.785	158.854	136.324
445.198	201.813	157.813	136.158
446.780	202.714	152.862	132.207
448.357	202.184	149.488	127.298
451.352	202.823	140.179	121.927
453.490	201.793	131.968	117.510
452.193	197.100	131.072	114.589
447.799	193.074	134.130	116.023
442.918	191.746	144.794	110.598
439.659	184.563	147.356	115.552
442.068	177.638	154.131	115.840
462.901	154.707	123.520	133.988
475.392	151.276	98.515	136.455
489.143	148.429	76.907	139.501
491.850	144.578	71.984	132.534
496.916	143.722	66.641	126.579
497.171	142.430	67.336	125.447
504.851	147.318	60.496	127.463
508.234	158.691	54.853	116.914
508.261	164.490	56.140	109.801
514.132	169.196	49.202	106.342
514.337	163.326	51.697	112.721
514.640	164.311	52.584	112.460
515.047	167.136	51.800	109.661
514.616	172.378	50.833	107.435
515.984	157.453	50.767	116.513
507.996	155.661	63.218	102.343
499.809	149.322	77.742	119.965
492.073	149.307	93.619	117.045
480.710	146.213	113.068	114.235
476.262	143.234	118.556	113.667
468.930	159.630	131.409	91.846
465.812	154.044	136.170	98.730
466.052	158.336	134.919	95.301
464.877	157.903	136.672	97.512
466.358	161.731	133.340	93.210
466.720	163.560	133.753	93.956
468.269	164.395	133.134	94.693
469.783	165.050	132.163	95.338
472.938	167.187	131.110	94.834
477.459	170.444	126.471	91.587
479.039	170.303	129.213	93.023
479.543	171.716	131.000	94.736
480.419	172.114	130.401	95.307
480.526	171.688	130.230	96.113
481.220	172.449	130.245	95.696
480.817	171.913	131.291	96.489
481.780	172.804	130.370	97.104
481.783	172.144	131.349	98.797
482.020	172.924	131.079	98.767
481.697	173.338	131.938	99.899
482.423	172.663	130.710	100.321
482.446	173.286	130.849	100.109
482.508	172.954	130.791	100.790
482.029	173.722	131.109	100.338
481.282	173.445	132.730	101.155
481.081	174.076	133.429	100.835
481.603	174.346	133.362	100.529
482.146	175.113	132.821	99.952
482.559	175.197	133.210	99.974
483.429	175.139	132.165	100.443
482.472	175.087	134.100	101.361
483.257	174.762	133.175	101.342
482.052	173.782	135.010	101.755
483.745	174.344	133.530	101.417
483.336	173.166	134.005	101.494
483.944	173.921	133.312	102.201
483.402	172.578	134.485	103.813
484.140	173.343	133.870	103.200
483.566	171.976	134.979	104.688
483.691	171.928	134.603	103.955
483.573	171.989	135.723	104.752
484.051	171.557	135.617	105.518
484.903	171.926	135.513	105.345
484.837	171.234	136.486	105.838
483.492	170.815	138.665	106.309
485.069	170.221	137.394	107.203
484.675	170.046	137.928	107.581
484.598	169.702	138.006	108.313
485.592	168.776	137.211	108.660
486.365	168.413	136.892	107.109
486.807	167.570	137.465	108.841
487.592	166.348	137.305	109.005
488.795	165.755	137.668	110.246
490.126	165.934	138.192	111.103
492.395	165.202	138.886	108.669
493.747	167.266	141.868	106.894
495.718	168.644	143.294	107.344
498.744	167.050	145.767	111.626
500.914	167.952	150.868	111.750
504.480	166.875	154.079	110.955
514.860	161.696	154.558	112.047
519.029	159.812	159.468	110.239
523.352	156.529	159.770	112.170
526.187	152.660	162.257	113.286
533.254	150.608	160.671	115.213
535.108	147.755	165.488	116.826
535.096	146.753	165.805	120.340
536.032	147.177	162.813	128.605
531.722	144.502	160.576	133.257
529.710	144.778	148.256	138.005
517.559	147.416	144.879	137.887
513.042	147.272	134.293	140.099
508.316	147.471	126.981	141.480
503.154	156.009	123.551	134.524
497.799	150.832	118.227	140.400
491.253	159.553	118.418	130.320
483.261	165.482	115.810	125.437
482.724	168.360	111.327	121.972
481.505	163.651	108.647	125.901
480.084	171.069	108.302	118.090
482.085	166.337	108.783	122.931
488.679	167.205	112.769	122.408
494.445	163.682	118.659	128.403
500.549	161.660	126.849	131.609
507.076	158.576	137.211	137.715
513.444	157.713	145.434	135.780
526.128	160.087	150.753	130.285
527.973	155.623	153.968	136.805
532.260	154.548	151.840	138.315
535.209	153.660	148.834	140.614
534.789	153.660	145.312	139.346
530.713	155.869	139.860	139.970
527.531	155.596	137.563	143.057
523.271	157.664	133.388	142.169
517.982	158.557	131.597	145.436
512.187	161.652	130.379	143.936
503.226	166.388	121.628	141.054
499.325	170.174	120.397	140.434
494.938	171.906	120.512	139.700
492.029	169.806	118.904	142.584
489.686	170.833	118.375	143.015
487.633	174.752	117.059	140.206
487.203	178.157	116.742	137.243
487.198	179.222	116.630	136.986
488.249	180.143	116.826	139.321
490.198	178.852	115.527	138.886
494.032	179.508	111.855	138.597
494.905	181.607	110.688	137.924
496.592	180.039	109.452	137.528
497.243	182.600	109.016	136.148
497.682	180.622	108.252	138.435
497.573	178.582	107.736	139.561
496.681	179.156	108.700	138.553
495.066	179.225	109.865	138.297
493.695	181.194	110.396	137.078
492.775	179.271	108.426	138.505
489.972	184.181	109.933	133.622
488.370	181.958	107.541	136.085
487.886	181.907	103.148	136.508
486.184	183.289	103.168	134.554
484.875	183.678	102.458	134.240
483.709	185.123	102.999	133.878
483.378	185.071	102.220	134.014
483.185	185.401	101.642	133.593
484.903	187.169	99.481	131.901
485.475	186.312	99.151	132.268
488.583	181.626	97.198	136.049
489.715	179.308	100.004	136.465
491.130	172.283	102.213	143.536
491.783	169.415	105.113	144.373
493.888	164.885	105.222	145.194
494.691	159.654	109.721	147.627
494.466	162.812	110.478	140.598
496.578	156.686	108.209	143.044
497.505	155.005	107.286	143.461
497.238	156.765	104.742	141.402
496.874	158.464	99.848	139.235
495.257	159.550	98.567	139.722
492.522	158.125	96.023	143.313
490.199	162.835	94.264	137.116
489.400	163.840	92.382	136.283
488.707	169.163	85.797	130.420
488.933	168.788	82.866	131.348
489.001	172.479	81.700	127.810
488.142	178.728	82.120	120.214
487.849	177.979	84.181	120.876
490.436	175.102	86.747	123.329
491.751	171.372	89.229	126.935
492.250	168.915	93.764	127.957
493.511	163.193	100.355	131.886
490.652	157.209	114.754	132.853
486.933	154.669	127.970	117.717
485.731	158.097	146.581	97.062
484.774	148.810	158.773	86.400
483.369	152.983	164.207	71.084
496.428	145.022	157.547	68.751
517.395	147.804	141.043	72.072
520.577	144.154	136.758	82.295
523.864	144.698	122.699	88.454
530.312	142.844	111.605	91.147
531.922	147.740	118.885	93.991
524.753	145.076	126.861	100.956
524.759	148.329	130.138	101.955
524.309	147.271	127.912	104.635
524.512	144.910	129.530	104.264
527.257	142.055	131.297	112.416
530.997	144.012	128.148	111.716
538.044	137.783	126.146	117.867
540.885	133.231	127.434	115.789
536.950	129.108	143.260	109.711
527.936	118.680	168.321	110.703
525.266	111.276	164.752	105.120
520.171	105.067	172.891	111.013
522.858	84.740	155.669	124.266
532.458	78.636	119.530	126.361
536.722	81.224	97.855	124.741
540.635	86.024	82.425	122.659
525.900	98.763	90.667	104.871
510.069	96.796	97.216	111.542
503.612	96.126	101.894	125.064
497.398	99.600	106.846	132.179
493.363	108.018	90.319	147.176
493.557	123.085	80.954	138.642
495.323	136.741	74.816	133.390
490.913	151.055	73.008	126.155
495.119	161.483	71.752	126.052
495.763	168.836	84.381	113.418
503.355	181.818	72.391	129.558
505.024	195.581	66.635	120.709
507.256	200.382	65.954	116.573
513.839	197.483	60.446	119.666
516.844	201.300	58.745	115.530
515.627	201.379	60.062	116.802
515.230	199.843	63.727	115.720
513.113	197.223	62.759	114.622
513.442	196.864	64.705	113.204
509.664	190.756	58.207	120.745
508.623	188.748	62.902	118.906
507.927	186.713	67.600	117.991
508.220	182.221	67.612	118.945
508.643	185.343	69.005	108.565
507.189	185.577	70.895	103.950
508.921	187.823	70.560	99.680
508.494	183.017	70.505	103.686
505.783	182.549	70.533	104.174
504.084	178.848	71.581	104.699
500.028	174.125	70.172	109.010
494.752	174.007	67.764	109.185
492.551	167.335	68.062	110.161
495.193	169.731	68.347	110.079
492.646	160.529	67.598	125.862
489.248	170.880	72.819	118.028
484.610	170.793	64.609	114.607
488.639	148.046	62.400	123.873
484.455	147.424	64.730	132.993
474.941	118.862	70.053	138.288
456.199	102.798	80.466	124.527
448.547	93.708	91.694	121.724
419.399	95.371	118.293	117.076
411.336	93.009	123.792	104.741
386.703	92.154	139.795	95.431
340.739	93.359	137.356	73.138
345.726	77.153	144.232	87.903
349.787	66.813	137.752	115.025
354.229	60.378	123.675	133.937
359.076	60.336	111.646	135.915
357.140	68.425	114.217	124.413
347.077	76.030	128.154	114.222
340.325	77.917	137.086	111.287
335.988	75.759	137.001	111.107
334.255	71.305	123.240	113.794
329.623	71.873	120.947	123.706
330.306	70.666	127.863	129.796
332.288	76.978	129.581	129.350
341.122	85.839	141.992	124.800
351.625	106.360	149.289	113.546
371.305	122.503	146.891	104.341
385.205	130.917	156.875	105.720
399.795	134.176	158.378	117.164
419.421	143.319	160.476	123.818
439.025	143.811	169.672	128.614
468.241	141.998	153.098	138.165
484.865	141.800	143.085	137.593
501.085	137.204	129.017	143.143
525.392	140.938	103.768	137.403
534.637	148.338	92.866	134.211
541.069	150.371	89.185	123.171
542.878	154.971	99.204	121.779
540.759	156.765	102.483	125.594
538.281	164.211	102.214	118.987
537.868	169.460	87.160	117.149
536.322	172.352	73.656	115.973
530.369	175.535	59.426	115.979
523.547	180.185	62.792	112.852
519.343	181.596	58.758	116.331
516.877	187.841	57.497	111.856
516.328	184.203	59.162	118.515
511.328	186.188	63.539	120.787
514.478	165.917	71.394	114.691
523.030	172.737	59.322	120.235
518.740	170.303	71.666	125.643
504.092	156.027	96.058	137.435
483.665	154.243	129.580	131.872
468.515	153.709	149.684	123.795
461.445	157.525	158.627	116.241
463.579	158.034	152.728	106.656
463.969	156.734	148.230	105.873
470.063	158.159	134.013	105.932
470.069	162.984	136.801	101.134
474.868	164.956	130.959	103.396
476.219	166.732	130.032	104.183
479.061	168.951	129.449	105.438
481.800	169.760	137.315	112.616
484.804	168.685	144.872	119.863
489.385	168.794	153.817	121.124
492.179	168.705	159.689	122.545
497.630	166.803	167.379	123.816
513.335	162.636	164.891	130.563
520.552	160.340	161.070	133.982
527.330	159.308	155.473	133.290
534.311	157.368	149.457	136.518
541.201	157.502	141.185	135.246
545.435	157.428	123.828	134.456
546.091	156.593	111.052	132.340
544.440	162.129	99.067	129.892
546.780	162.719	93.806	131.413
541.909	168.578	97.363	128.755
532.767	166.624	92.929	127.964
530.940	170.615	86.185	126.148
525.545	167.518	87.084	125.225
519.435	166.002	85.142	128.790
512.720	163.371	79.157	127.354
506.466	156.255	66.917	132.192
504.083	148.551	67.600	131.440
483.542	155.669	74.993	131.378
474.479	163.756	73.560	122.616
466.485	161.715	88.818	120.135
448.113	157.668	122.449	111.700
439.607	162.432	144.827	109.658
433.950	160.520	164.078	103.142
433.266	168.867	167.974	93.534
440.613	171.438	158.103	96.806
465.930	166.412	113.198	113.378
479.025	166.537	94.081	118.363
484.093	168.799	83.994	119.636
489.060	174.583	81.489	114.331
487.973	170.641	90.611	118.979
491.868	169.828	98.214	122.088
492.552	172.923	108.126	120.718
493.166	171.775	123.529	122.535
490.741	174.726	138.145	118.051
490.789	171.070	154.174	122.073
492.807	162.554	164.884	127.007
499.655	151.160	160.618	138.967
514.123	139.731	141.033	145.156
527.107	132.775	118.825	143.833
535.141	133.360	93.413	138.830
537.718	127.242	74.457	125.647
529.016	121.057	83.143	117.514
514.573	117.307	97.509	114.216
491.478	109.522	119.825	116.418
467.889	108.571	142.389	113.330
450.116	110.277	145.890	113.706
434.307	110.121	150.153	116.523
419.673	112.549	149.547	117.131
406.247	116.371	144.758	113.995
389.323	122.972	144.342	108.474
356.730	126.705	142.455	105.274
337.176	124.703	142.679	110.524
319.530	130.013	142.586	103.958
301.676	131.358	142.849	103.622
283.272	131.542	146.165	105.313
263.648	129.936	138.299	110.825
252.697	133.013	132.305	107.143
242.525	132.765	128.617	109.042
233.645	134.597	126.138	109.128
230.200	128.719	120.791	114.631
226.850	130.172	118.353	115.907
227.049	126.582	113.211	117.616
227.834	124.786	111.471	122.022
230.603	124.748	108.289	123.181
233.214	123.656	110.679	124.503
237.336	131.521	114.758	125.229
242.116	136.052	118.376	123.399
245.152	137.673	124.527	128.492
250.400	143.294	135.682	129.122
250.132	154.049	151.258	122.488
275.029	165.281	162.685	128.893
291.740	170.178	161.408	131.919
321.267	177.366	151.354	136.289
355.473	176.032	123.422	140.106
381.231	190.603	100.880	124.300
423.477	165.774	83.107	150.383
467.397	171.498	73.396	145.191
483.275	179.600	77.872	134.253
495.394	186.001	86.949	127.503
501.910	185.206	96.971	129.769
508.832	194.245	104.517	122.862
515.949	193.750	99.385	124.476
515.582	200.549	98.004	118.459
517.585	200.812	90.909	115.996
512.764	197.304	82.323	115.545
497.420	192.027	80.392	113.846
483.490	194.958	79.890	111.298
