306.000	149.000	137.000	100.000
304.272	149.303	139.964	98.996
303.397	148.917	141.162	98.644
304.103	148.730	140.658	98.383
304.082	147.688	141.307	98.968
304.553	147.248	140.718	98.875
305.129	146.842	139.200	98.013
305.237	146.016	139.764	99.561
306.183	145.858	139.069	99.118
305.661	145.330	139.340	99.730
305.082	145.794	139.939	99.344
305.008	145.729	139.658	99.300
305.148	145.147	137.686	99.559
305.184	145.421	138.983	99.213
304.863	145.266	138.815	99.146
304.454	145.251	139.506	99.083
302.863	145.586	140.852	99.746
301.072	146.576	141.407	99.723
300.687	146.670	142.086	99.724
300.068	147.263	140.882	100.566
299.494	148.156	140.425	100.003
298.980	148.879	141.705	100.266
299.136	149.040	139.205	101.129
297.980	150.181	140.059	100.400
296.365	150.780	140.841	100.316
295.009	151.122	140.434	100.709
293.619	151.270	140.014	100.800
291.778	151.334	139.411	101.176
290.798	151.015	137.772	100.250
288.907	151.745	137.556	100.494
287.930	151.943	137.446	100.236
284.944	152.583	138.606	100.418
285.115	152.355	138.853	101.033
284.141	152.526	139.363	100.965
283.552	152.257	140.372	101.110
284.574	152.375	140.097	101.312
285.625	152.150	139.304	101.663
285.547	151.576	140.466	102.813
286.600	149.723	139.528	103.468
287.939	147.959	140.253	104.313
289.357	147.059	139.996	104.659
290.304	145.964	141.212	105.524
292.954	145.429	141.965	105.283
295.766	145.263	140.363	105.557
297.489	144.719	142.389	105.084
298.821	144.901	146.327	105.022
301.605	144.814	147.422	107.182
304.260	144.807	149.057	108.235
306.782	143.497	147.223	109.000
307.797	141.773	147.159	108.703
309.278	142.522	145.617	106.740
310.199	141.689	146.087	106.367
308.613	141.205	151.104	105.738
309.253	139.375	151.033	107.428
309.303	138.931	153.102	107.111
308.699	137.716	155.792	109.030
310.240	138.138	153.532	109.774
312.299	138.784	151.483	109.315
311.644	139.068	152.783	109.817
312.642	140.393	151.999	110.224
313.591	141.977	150.958	109.516
313.829	141.417	149.250	111.059
312.883	141.538	149.553	111.358
311.370	142.627	149.452	110.624
308.294	143.620	148.284	109.480
304.493	144.207	147.055	109.708
299.921	145.926	147.655	107.230
296.230	146.919	146.066	108.003
290.834	149.549	146.463	107.142
285.864	150.571	145.619	105.891
279.792	151.759	146.158	106.327
276.726	152.181	144.860	106.984
272.734	153.332	145.228	106.807
269.597	155.494	145.469	106.783
270.346	155.190	145.293	109.231
268.835	155.585	144.136	110.916
269.198	156.457	144.909	111.704
270.137	156.621	143.341	111.246
271.119	157.651	142.284	109.830
273.147	156.475	141.801	111.311
273.545	157.028	142.807	109.762
274.466	156.414	144.217	111.372
275.629	156.476	145.122	111.259
277.340	154.351	146.223	113.374
278.871	153.898	145.224	112.927
279.361	152.871	147.016	115.966
280.258	151.274	147.187	117.158
280.486	151.396	147.617	115.434
283.059	149.954	145.024	114.731
287.527	148.663	139.069	115.806
294.821	146.771	129.564	119.812
300.291	146.061	117.115	120.126
305.260	146.842	108.618	119.978
315.044	146.534	95.836	122.775
326.393	149.241	89.234	126.088
326.718	151.698	83.173	113.649
323.660	147.510	90.422	113.683
321.879	144.861	97.513	114.585
319.221	142.114	108.499	115.326
315.631	139.995	116.563	115.235
311.727	138.971	126.450	111.105
308.516	135.798	133.761	112.811
307.157	133.182	137.381	114.721
304.895	130.978	137.959	116.368
305.071	129.599	140.525	118.036
305.340	128.223	139.120	117.201
302.566	128.565	142.198	118.667
302.175	129.750	142.694	116.153
300.362	131.853	143.015	115.541
301.709	133.399	139.565	115.882
300.269	134.037	141.910	115.642
301.330	134.179	140.751	114.719
300.558	134.556	142.258	113.772
302.997	133.048	139.650	117.811
303.540	133.487	140.734	115.653
303.411	131.087	141.682	117.006
304.620	131.726	141.610	116.199
306.601	131.971	140.022	116.076
304.492	132.904	143.058	114.214
304.143	132.878	144.492	114.251
302.419	132.189	146.158	115.006
304.317	132.284	143.716	116.262
307.765	131.844	140.312	116.634
306.634	131.664	142.076	116.137
305.218	131.510	143.598	115.316
305.720	131.778	143.218	116.233
305.871	131.316	142.955	116.186
306.862	131.396	141.081	115.248
306.273	132.285	142.470	113.984
305.919	132.656	142.920	113.673
305.988	132.656	141.437	113.795
307.298	131.465	139.405	115.813
305.558	131.154	141.215	115.098
303.495	130.935	144.274	115.696
302.225	131.396	143.989	115.924
302.378	131.154	141.892	113.556
302.826	130.641	138.646	115.742
297.035	131.840	139.359	114.816
291.901	132.753	140.340	114.020
291.751	132.929	136.828	114.035
285.780	133.425	138.028	113.844
284.870	133.603	134.767	113.757
282.581	134.426	134.780	113.286
280.905	133.841	134.175	112.738
279.343	133.782	133.146	112.447
277.960	134.373	131.841	111.298
276.885	133.947	132.982	111.615
275.371	133.131	133.247	111.913
275.170	133.057	132.274	111.988
274.678	132.676	132.659	112.629
273.835	131.692	132.697	113.646
272.764	131.381	134.557	113.653
272.626	131.638	133.706	113.796
272.866	131.834	133.909	114.304
273.066	132.665	134.163	113.342
273.566	133.839	135.595	112.382
273.721	134.291	138.406	111.537
275.355	133.797	138.891	112.440
277.766	132.994	140.526	113.434
279.685	133.137	135.888	113.585
281.635	133.195	132.341	112.687
281.934	133.354	136.774	113.290
283.935	133.871	132.496	113.199
285.810	134.560	132.516	111.907
286.502	134.566	134.473	112.191
287.967	134.720	132.632	111.837
287.841	134.577	135.134	112.748
288.530	134.730	137.501	112.390
289.038	134.770	137.198	112.742
290.126	134.555	135.465	113.099
290.761	134.283	136.027	113.638
291.219	133.951	136.472	113.861
289.870	132.802	138.738	114.733
290.273	131.590	140.139	114.051
291.637	130.720	138.041	114.486
289.764	130.437	145.421	114.198
297.295	127.802	143.316	116.268
295.865	124.865	150.207	118.055
297.683	121.716	150.716	120.788
309.789	119.616	153.874	122.827
309.775	117.365	156.595	124.113
313.631	116.025	156.318	125.720
316.546	115.519	157.037	128.911
321.122	118.517	156.087	125.179
322.153	121.249	152.074	123.665
321.890	122.886	149.340	125.287
322.254	126.156	149.234	124.292
323.084	132.137	142.925	120.075
323.345	136.992	139.860	115.830
320.348	140.960	140.757	112.717
314.793	143.576	141.994	109.805
315.605	142.953	136.632	111.411
309.661	142.823	140.215	111.406
307.634	142.406	139.048	111.124
301.322	143.468	141.058	109.692
299.493	142.310	135.314	110.439
296.149	142.697	134.822	110.769
294.255	142.113	133.121	111.179
291.607	141.173	133.104	111.328
288.538	141.173	133.945	111.540
284.237	141.856	137.815	108.952
279.678	142.151	141.741	108.451
279.549	140.819	140.716	112.464
278.896	140.808	137.683	110.792
276.496	140.210	139.370	113.485
275.045	139.818	136.834	113.281
277.069	139.485	131.052	113.596
280.943	139.308	125.313	114.001
283.341	139.822	122.716	112.580
285.109	139.078	122.096	112.846
288.297	140.593	119.443	110.179
291.157	140.683	116.734	108.618
293.190	140.723	115.264	108.776
294.209	140.754	116.096	108.896
295.140	140.744	116.791	108.590
295.846	140.780	117.565	107.248
296.314	141.236	117.378	106.826
296.943	140.817	117.515	108.521
297.353	141.057	117.602	108.679
296.104	141.626	121.020	108.752
295.496	142.180	125.285	107.882
291.775	142.305	130.883	108.405
289.758	142.654	131.608	107.505
289.323	142.726	130.841	108.226
286.982	144.348	130.967	107.636
284.905	144.409	132.942	108.704
281.506	144.725	135.363	109.684
279.965	145.225	135.022	109.341
279.132	145.344	134.738	108.557
276.301	144.858	133.015	109.902
271.610	144.850	135.064	110.355
269.048	145.189	133.923	109.717
267.907	145.964	132.055	109.020
266.105	146.206	131.042	109.053
263.583	146.091	131.899	110.152
261.759	146.795	133.480	109.102
261.285	146.926	133.136	109.975
261.217	146.389	132.919	110.256
261.349	147.257	133.056	108.992
260.960	147.041	133.532	108.822
262.447	146.687	132.412	109.659
262.950	146.429	132.361	109.582
263.753	146.569	131.931	110.690
263.256	146.184	132.974	110.393
264.441	145.504	132.242	111.421
263.945	145.156	134.191	111.326
263.768	145.343	135.007	111.667
260.971	146.204	137.622	110.137
259.062	146.676	139.541	110.825
257.486	146.575	140.110	112.863
254.059	148.869	144.712	109.759
253.416	148.064	144.346	113.234
256.540	146.706	140.255	116.378
256.692	146.622	141.305	115.834
263.398	146.382	134.001	116.050
272.722	144.971	122.313	114.667
281.852	143.248	111.464	114.302
293.023	138.843	96.004	116.781
303.598	136.986	84.427	115.781
314.680	133.886	74.705	113.412
316.985	132.922	75.327	116.346
322.264	130.940	73.016	118.935
328.028	129.674	69.728	120.567
332.525	129.947	66.943	118.726
334.362	134.060	59.772	113.751
334.264	143.276	58.287	107.618
330.844	140.686	62.598	119.246
330.380	140.171	63.041	121.052
332.350	134.335	82.158	116.103
333.343	132.471	104.684	92.194
337.192	129.822	113.709	98.236
334.013	127.831	124.084	90.633
333.652	130.342	120.398	94.229
333.643	126.539	118.251	91.023
333.919	128.647	115.758	90.875
332.848	128.421	120.681	93.931
332.643	127.402	122.465	89.577
329.621	126.140	123.704	83.980
329.425	128.067	121.209	89.148
313.658	135.405	76.676	118.691
298.647	139.932	102.980	110.265
285.172	138.181	124.347	112.455
274.299	135.537	145.499	116.922
260.797	138.290	165.665	117.542
258.853	134.081	162.229	117.487
263.247	133.836	155.582	113.437
269.158	133.370	141.421	111.863
280.291	132.092	128.938	108.073
293.624	127.155	112.284	110.041
304.990	117.003	97.156	116.930
310.106	114.197	83.345	117.386
314.757	126.078	79.271	108.391
318.564	102.415	85.855	116.339
310.363	82.124	92.285	128.324
306.871	84.296	94.982	131.556
300.748	96.909	95.624	126.380
294.077	80.170	97.524	136.886
293.752	91.232	111.767	118.548
291.704	71.101	100.936	136.654
292.232	66.583	88.379	137.646
295.721	64.779	85.982	143.750
301.071	54.774	81.125	145.144
304.471	55.235	83.498	141.649
313.864	67.326	75.187	135.073
328.762	72.190	80.786	134.160
322.110	115.948	89.428	103.659
291.489	124.947	108.274	69.927
302.739	129.863	105.121	73.701
302.584	134.037	107.322	72.894
324.897	143.405	106.101	61.884
325.223	132.796	115.126	72.834
328.215	123.423	124.318	104.438
313.218	124.775	140.086	111.401
308.198	128.216	143.125	111.712
309.960	132.566	137.970	110.937
299.214	137.063	149.619	113.338
298.476	137.991	151.808	116.346
296.789	140.910	150.793	118.677
299.818	141.559	143.627	123.942
299.339	143.233	144.342	122.386
298.173	143.167	149.456	122.926
299.575	143.064	151.120	122.737
304.515	142.687	147.104	122.990
306.475	142.530	145.354	122.621
303.900	144.596	147.127	122.380
300.033	146.533	150.133	122.543
296.758	148.332	150.191	123.079
288.916	149.299	155.007	124.458
282.156	150.092	157.417	126.633
270.358	151.265	164.721	127.197
259.560	150.956	170.547	130.097
254.430	152.214	169.158	128.400
261.478	150.682	161.191	128.623
252.384	155.162	166.289	123.750
255.152	154.826	160.492	124.363
261.554	154.876	159.025	122.313
263.312	151.623	161.395	124.110
267.387	153.088	157.568	120.636
272.420	150.319	151.329	124.624
278.938	151.109	151.886	122.085
288.504	149.213	150.141	122.724
292.352	148.301	147.835	124.101
293.908	149.451	149.622	121.919
298.170	149.208	150.047	120.528
302.359	148.980	149.353	120.628
309.925	149.304	141.966	119.237
312.218	148.784	141.258	120.350
310.390	148.913	143.731	119.231
305.413	148.654	149.391	119.583
305.302	147.506	151.880	119.720
307.402	147.780	152.707	117.503
312.054	147.292	150.225	118.210
316.094	144.885	149.142	117.557
322.665	141.814	149.780	117.699
329.873	136.877	141.127	118.238
335.834	134.084	130.284	116.582
338.876	129.008	142.032	115.385
358.726	123.131	156.239	116.936
379.309	116.451	155.604	118.113
395.395	109.962	146.566	122.404
415.579	104.074	151.088	119.979
429.934	98.262	145.810	125.255
443.591	95.652	146.490	143.287
437.188	97.599	155.024	146.665
408.911	113.044	160.205	130.388
407.630	129.156	142.449	113.665
389.622	132.110	150.636	111.858
391.357	136.322	146.747	107.565
369.919	134.970	149.093	108.918
371.571	136.111	145.409	108.448
375.273	136.544	142.501	108.772
378.654	135.591	134.844	108.757
379.048	135.494	135.090	110.210
371.843	135.345	134.080	110.019
371.945	134.496	122.348	110.789
367.033	134.748	126.593	110.565
370.684	136.190	127.817	109.508
371.453	135.847	131.748	109.365
362.616	134.994	124.503	111.505
366.292	136.234	128.697	109.922
364.168	135.479	117.469	111.295
371.015	134.688	134.352	110.940
372.828	130.841	127.958	114.123
376.151	131.577	133.599	111.998
387.572	122.875	161.275	116.316
382.808	121.474	175.006	112.291
389.949	117.626	168.070	118.663
393.745	118.070	155.676	117.455
383.923	121.885	154.197	114.544
375.041	124.070	152.098	115.487
370.437	126.136	148.782	116.388
368.706	124.520	149.140	122.705
367.905	123.394	152.938	123.081
368.706	126.695	151.869	121.878
373.886	127.061	147.477	122.036
371.677	125.969	149.616	122.798
370.755	125.434	150.417	123.158
369.611	126.721	152.185	122.310
369.408	125.881	150.642	123.441
366.367	125.142	149.134	124.588
360.919	125.142	152.293	124.748
357.185	125.828	153.450	123.827
352.829	127.082	153.657	122.413
344.116	126.892	160.441	121.960
340.530	127.063	157.162	122.790
328.788	129.513	159.628	121.702
322.690	132.236	154.593	119.722
303.396	128.035	168.212	121.947
304.036	126.767	153.346	122.348
288.490	124.807	164.764	123.056
272.846	119.438	162.941	126.474
254.004	117.550	174.385	128.821
254.420	118.162	161.393	127.958
245.533	117.690	164.178	128.438
242.366	117.697	163.165	129.044
241.011	118.988	155.137	127.867
241.560	118.327	149.491	127.083
243.648	117.982	143.145	127.291
245.995	117.323	137.167	126.279
248.687	120.062	134.226	122.743
255.970	122.303	128.508	118.745
263.261	123.038	126.498	118.526
270.479	122.966	120.863	116.635
279.355	124.243	114.877	115.659
285.781	124.447	109.785	116.543
289.629	124.648	107.388	115.365
290.795	124.521	106.874	115.849
290.858	124.640	107.404	115.730
292.402	124.699	106.053	115.671
295.528	124.934	103.757	115.574
297.832	126.372	101.014	113.221
296.576	125.531	102.429	113.817
296.234	125.053	103.399	114.580
296.889	124.930	103.428	114.293
299.216	125.026	101.893	114.738
300.740	125.832	101.577	111.961
301.958	124.668	102.877	113.774
302.156	123.135	103.920	114.671
305.129	122.035	101.186	117.958
311.693	124.793	94.220	114.406
313.893	126.087	92.924	116.734
316.533	128.798	88.987	111.410
324.766	133.872	79.662	110.815
327.598	132.711	77.219	110.734
328.620	132.573	76.606	114.430
328.881	131.349	77.232	114.719
331.028	131.196	78.652	115.861
330.582	134.761	77.688	107.929
330.953	136.065	81.728	109.661
329.383	133.989	87.120	114.743
330.155	130.786	92.257	116.951
325.097	131.705	99.899	117.096
318.607	133.428	107.958	113.828
313.910	132.324	113.742	118.642
307.067	134.866	119.592	116.459
293.815	137.749	126.658	112.549
290.340	139.983	128.777	115.602
288.642	139.815	127.654	117.936
275.869	149.428	136.374	109.611
268.831	149.988	135.824	111.115
262.315	153.200	142.373	108.294
260.281	154.991	141.306	107.709
260.890	149.650	142.726	113.999
259.923	148.452	144.234	115.596
262.422	148.703	146.755	115.297
265.253	146.363	148.272	116.156
268.290	148.441	149.616	112.356
275.120	146.114	146.718	113.566
278.928	145.988	149.360	114.263
285.462	149.805	146.265	109.109
292.975	152.084	142.511	107.085
293.400	155.794	142.721	101.044
292.769	149.946	149.029	105.842
303.032	147.082	143.999	111.784
300.545	148.039	133.127	109.156
305.226	145.342	136.383	112.711
305.589	148.236	126.995	111.762
305.588	145.141	137.287	115.855
310.057	146.217	140.059	115.444
308.992	151.618	145.101	108.249
311.090	152.251	145.442	110.025
309.342	151.398	139.777	108.168
307.128	150.380	127.649	110.815
296.701	149.703	120.481	113.051
306.988	151.137	136.379	110.589
329.693	152.984	128.555	110.154
301.572	148.797	142.515	113.864
300.057	152.199	136.855	110.520
280.597	151.828	149.071	111.770
286.306	148.217	140.883	112.901
284.712	156.546	137.494	105.960
288.926	148.936	141.065	112.848
282.106	154.062	146.108	109.311
275.036	150.932	143.842	111.386
278.561	150.221	146.209	108.719
283.710	148.824	135.547	112.255
271.874	147.572	143.421	112.682
277.450	147.729	141.467	114.226
282.881	145.814	133.499	116.636
287.269	145.041	128.962	115.843
272.943	146.949	143.007	113.224
275.525	144.931	144.822	114.515
275.658	143.546	142.731	115.936
275.221	142.452	146.902	115.864
278.831	141.190	146.660	115.505
281.473	140.341	146.960	112.656
287.659	138.579	143.850	113.906
292.815	137.918	141.501	113.051
295.485	135.127	143.287	114.509
299.611	133.528	142.223	114.473
301.739	131.313	145.547	113.409
305.371	129.856	144.529	113.662
309.281	128.207	146.678	113.264
317.153	125.987	143.580	114.613
324.724	123.365	141.787	116.746
327.176	120.260	144.254	115.940
334.066	115.550	145.111	114.770
339.478	111.017	144.877	115.122
343.569	105.358	149.645	117.749
347.059	101.912	147.777	117.964
348.109	94.142	148.530	117.817
357.396	88.759	151.965	117.666
360.199	84.151	152.795	117.561
363.760	79.839	155.237	117.781
377.940	76.447	149.561	117.140
393.092	73.484	146.849	115.806
394.099	70.858	152.224	115.331
402.143	68.638	149.044	116.113
407.550	68.021	146.698	115.839
409.895	67.958	150.241	113.708
412.126	65.475	150.601	112.776
414.837	65.848	148.267	112.759
419.284	65.923	147.043	111.034
417.830	64.633	146.178	112.976
422.474	65.775	145.357	112.577
421.274	64.102	145.385	114.928
423.520	65.566	141.139	113.647
420.701	67.342	144.509	111.988
423.322	66.754	143.417	113.039
423.137	67.554	143.341	112.603
423.556	68.921	142.962	111.113
424.356	69.005	144.735	111.465
424.848	68.369	143.184	112.377
425.264	67.247	139.577	113.799
421.626	70.600	141.415	112.178
415.277	73.415	146.232	112.918
409.889	76.398	151.866	113.950
402.278	78.558	153.172	116.146
295.702	153.605	173.454	136.756
291.928	148.117	180.389	137.850
290.618	150.067	175.242	135.306
292.317	151.322	172.818	132.843
297.523	149.682	172.062	131.442
302.607	150.483	175.517	128.195
311.078	152.036	166.859	126.563
318.690	148.504	163.287	125.129
329.554	148.252	155.677	121.031
337.973	146.370	151.015	120.157
344.020	145.910	148.290	117.460
351.890	144.708	145.302	116.354
352.179	142.287	148.668	114.227
354.099	142.590	148.963	115.035
356.797	141.272	147.509	115.081
358.185	141.611	147.765	113.927
356.393	141.190	152.745	114.352
356.435	139.187	155.038	116.332
358.244	139.109	153.693	114.882
360.988	138.514	154.485	116.040
359.104	136.347	158.467	119.993
361.087	134.359	157.646	121.626
363.170	132.907	158.709	123.674
362.643	131.908	159.821	122.452
363.507	132.090	159.610	121.404
364.318	133.854	158.219	116.778
366.997	134.557	156.304	113.735
369.352	135.501	154.389	111.460
368.990	136.905	152.538	108.545
364.748	137.926	153.482	108.288
362.133	139.675	151.106	106.906
353.326	140.144	156.753	108.042
348.355	137.852	157.548	111.130
349.677	138.822	150.050	115.289
348.033	137.415	148.928	118.701
347.570	137.295	148.012	120.485
345.075	137.034	150.499	122.983
343.308	138.285	150.971	121.057
341.318	139.702	151.154	118.258
340.526	142.580	148.885	116.644
340.473	144.111	149.821	116.636
337.002	145.624	154.138	115.277
335.702	145.211	157.683	115.416
335.497	144.754	154.967	114.639
335.237	145.654	157.365	114.053
334.581	145.269	158.313	114.761
336.263	145.584	154.027	114.302
334.490	145.861	154.806	114.468
335.693	147.138	152.195	113.365
332.501	148.008	154.895	113.636
331.457	147.852	156.355	113.420
330.626	148.840	156.738	112.641
331.008	148.089	153.697	113.856
330.434	148.276	151.402	114.352
329.464	147.132	151.221	115.135
326.813	146.820	153.254	115.873
328.737	147.026	150.124	116.470
326.041	146.126	149.758	116.448
327.520	143.906	145.518	118.111
329.280	144.033	141.999	117.476
330.282	143.070	141.447	117.831
329.729	142.043	142.903	119.283
329.256	140.880	142.078	118.153
328.735	139.726	142.004	118.240
326.369	137.559	143.654	117.308
327.885	136.305	142.661	118.981
330.427	136.642	140.465	117.113
331.749	135.449	138.817	117.358
332.374	135.084	137.916	119.152
332.452	134.041	137.829	117.840
333.589	132.511	135.061	118.675
334.924	131.305	133.830	118.692
334.703	130.475	133.089	117.975
334.804	129.191	132.097	119.285
335.843	127.884	129.905	119.189
336.318	127.214	128.288	118.039
337.025	125.320	126.558	118.952
336.395	124.651	127.406	118.408
336.330	123.621	127.470	116.443
335.684	123.025	127.260	114.983
333.884	123.164	129.441	117.429
332.334	124.279	129.420	119.092
327.236	125.745	134.863	119.895
324.602	128.154	136.339	120.007
321.776	130.476	137.700	120.611
317.931	132.239	138.722	121.859
313.657	135.114	142.500	117.591
310.161	137.773	144.121	118.816
303.214	140.557	149.105	117.279
297.428	142.817	152.371	117.281
293.384	143.907	152.350	118.852
290.644	147.100	152.098	120.005
282.190	150.098	156.513	119.760
280.300	150.746	148.323	122.650
280.890	149.744	145.163	121.979
278.479	147.780	146.282	125.932
275.378	146.312	149.301	126.719
274.494	145.510	154.589	124.096
272.899	145.377	154.532	121.849
266.893	145.343	159.630	122.007
265.542	144.896	156.581	123.477
267.298	145.413	153.378	123.495
261.213	148.107	156.875	122.709
261.395	148.629	154.510	123.767
258.525	149.887	149.560	123.876
260.922	152.044	148.284	122.388
258.395	151.797	149.346	123.602
260.163	152.239	146.844	121.903
257.768	152.612	154.863	121.326
260.083	151.291	150.676	121.807
260.221	151.746	153.762	121.967
257.197	152.499	157.716	120.316
256.168	150.132	157.780	121.335
254.922	149.878	159.159	120.889
255.365	150.894	158.856	120.231
254.866	151.285	156.951	119.870
256.288	151.834	155.548	120.807
255.620	151.712	158.072	120.382
255.385	151.905	157.628	121.300
255.676	151.253	158.811	121.989
255.410	150.555	159.129	123.509
256.726	149.528	158.815	125.848
256.229	149.360	161.655	127.561
258.138	149.073	160.949	129.097
259.975	149.438	159.978	129.367
259.125	148.319	162.367	131.071
263.907	148.571	159.088	131.278
263.868	150.222	159.451	130.828
263.948	150.166	159.804	131.904
266.094	148.971	156.428	132.956
266.861	149.516	155.649	132.762
267.506	147.227	153.660	135.567
266.324	149.162	154.576	133.806
265.828	149.587	156.410	134.255
266.517	151.958	153.766	132.778
264.092	152.122	157.447	133.175
262.913	150.809	157.712	135.319
260.564	152.161	159.544	135.705
260.624	152.628	157.339	135.362
259.322	152.060	157.313	136.185
258.847	151.992	157.053	136.990
258.769	153.196	154.198	134.497
258.350	153.199	152.303	135.534
259.068	153.540	150.656	136.319
258.026	154.474	151.638	135.771
258.469	154.132	150.927	136.240
258.316	154.348	150.878	136.735
257.161	154.866	151.432	136.788
256.205	154.447	152.150	137.508
256.712	154.386	151.309	137.606
256.729	155.111	151.054	136.969
255.605	155.241	151.618	136.984
255.130	154.240	151.832	138.555
255.606	154.686	151.881	138.230
255.545	154.175	152.619	138.832
255.420	153.614	153.125	139.052
255.313	153.907	153.907	138.490
255.701	153.687	154.143	138.265
256.934	153.319	153.080	137.841
258.054	152.578	152.374	139.132
257.342	152.505	153.717	139.296
258.381	152.290	154.410	138.882
258.449	152.361	155.553	137.979
258.896	152.361	155.740	138.336
259.264	152.143	155.794	138.228
258.610	151.922	155.576	138.449
260.044	151.774	154.909	138.686
260.499	151.037	154.098	139.215
260.293	150.965	154.871	139.527
260.712	151.391	154.310	138.996
261.130	151.185	153.837	139.156
261.449	151.333	153.171	138.890
261.624	151.112	152.468	139.085
261.807	151.185	149.930	138.294
261.906	150.656	146.486	139.203
261.728	150.760	145.207	138.396
261.389	150.599	143.195	138.492
262.218	151.618	139.219	137.757
263.200	152.147	134.415	137.188
266.307	148.138	128.607	141.912
266.487	150.323	127.988	140.106
269.289	151.560	125.014	140.407
270.647	156.826	125.399	138.004
271.005	161.644	125.811	137.728
272.201	166.827	126.293	135.837
274.052	168.714	126.086	137.039
275.331	171.916	126.419	136.488
277.724	174.667	124.893	137.959
282.013	177.103	122.859	137.987
284.265	178.900	123.883	137.857
285.185	181.190	125.587	139.268
285.179	183.809	128.508	138.223
285.887	184.178	130.008	143.253
286.182	185.001	131.666	142.585
289.574	185.713	129.430	142.112
292.583	185.437	127.254	141.801
293.812	185.945	127.067	140.817
295.176	186.419	127.485	141.937
296.526	186.695	128.520	141.409
297.313	186.291	129.356	141.995
297.384	186.208	130.539	142.511
298.139	185.846	130.212	142.816
298.255	185.481	131.183	144.418
298.090	184.779	132.189	145.280
297.820	184.397	132.676	145.046
297.612	183.654	132.971	145.788
297.164	183.249	132.787	146.044
296.334	181.608	131.866	148.564
295.596	181.113	131.029	149.381
294.316	180.960	130.639	149.240
292.795	181.155	130.712	149.116
291.901	181.533	129.250	148.150
290.023	182.671	128.740	147.780
288.541	183.534	126.812	146.259
286.936	184.029	127.875	146.117
285.017	185.241	128.040	144.991
284.050	185.407	128.432	144.684
283.255	185.846	127.574	145.609
282.046	186.236	128.381	145.685
281.836	186.233	127.548	146.014
281.454	186.215	127.643	145.943
280.250	185.769	129.096	145.815
280.280	186.160	130.118	147.267
280.675	184.963	132.418	149.034
281.611	184.274	134.736	148.766
282.379	182.828	136.368	150.766
282.488	182.226	139.750	151.434
283.179	181.127	142.347	152.964
283.637	180.717	147.603	153.534
284.668	179.777	149.989	153.830
285.329	178.341	153.461	154.963
286.967	176.505	155.710	156.024
288.685	174.066	155.840	158.394
288.773	172.600	156.411	159.391
289.225	171.278	156.730	159.615
290.004	170.417	157.102	159.746
290.921	170.168	156.803	158.245
292.089	169.435	155.824	157.751
292.957	169.433	154.773	157.968
293.500	169.759	154.504	156.198
293.979	169.248	153.399	155.030
294.157	170.266	153.032	155.616
294.790	169.989	150.024	155.674
294.295	169.476	148.898	157.613
293.205	168.812	148.365	157.306
291.593	168.346	147.136	156.267
289.790	167.853	147.449	155.736
288.569	166.505	145.740	157.946
285.932	164.363	147.170	160.157
283.424	163.210	146.980	161.474
280.869	162.731	147.474	159.942
278.327	161.813	147.323	156.281
276.945	160.489	147.199	155.028
274.807	160.488	148.431	154.679
273.401	160.026	148.028	148.420
272.683	160.548	147.353	151.927
269.769	160.660	148.843	147.459
263.960	164.609	154.941	137.590
264.391	165.798	156.145	137.137
260.350	167.125	166.248	135.361
262.993	166.919	165.260	138.072
260.382	167.232	170.678	137.995
259.511	166.437	172.198	135.069
258.747	165.148	175.461	137.910
258.229	164.902	179.947	137.813
260.482	164.883	178.020	139.574
261.071	165.182	179.403	137.289
261.125	163.829	176.624	136.121
262.099	162.574	175.066	136.530
263.533	163.323	173.594	136.286
262.815	163.540	173.927	135.946
262.973	163.319	173.948	137.301
258.635	164.070	177.324	134.486
259.238	165.602	171.775	135.046
258.559	163.837	166.810	138.873
260.933	165.268	171.652	135.509
264.624	165.660	166.939	137.983
266.626	164.033	169.123	139.276
261.393	165.388	180.956	136.986
265.351	165.634	176.418	135.866
259.379	165.930	181.270	133.974
260.143	163.763	183.784	138.045
257.982	170.159	185.782	132.240
258.421	163.305	183.449	140.781
257.680	159.499	181.026	141.375
259.371	160.628	174.674	138.732
248.289	158.173	180.513	140.009
245.648	155.386	178.002	139.600
243.233	153.023	174.905	140.191
244.961	151.990	168.801	139.792
243.620	150.205	168.585	138.723
242.914	150.751	162.952	138.672
239.972	150.969	167.008	138.226
236.202	153.322	169.382	136.653
231.791	157.373	166.521	134.484
230.831	157.550	169.172	136.183
230.160	161.346	169.281	134.493
228.129	163.971	169.615	133.192
229.776	168.780	166.929	130.278
230.888	171.656	164.245	129.846
231.279	173.312	163.933	130.944
231.362	175.124	166.694	132.932
235.723	174.431	168.505	132.023
235.603	183.292	170.580	126.787
239.009	176.072	163.842	133.414
248.201	177.948	156.375	133.312
247.430	177.996	155.566	130.213
251.877	178.388	151.178	128.585
254.308	180.084	149.130	126.029
255.218	181.298	149.287	125.756
255.551	183.163	147.045	121.927
259.448	183.285	144.773	122.512
262.918	185.517	142.919	117.455
263.116	186.151	147.001	118.450
264.526	186.528	145.408	117.371
267.407	187.421	143.718	116.684
268.436	188.154	141.398	114.769
274.554	187.864	137.811	111.537
278.529	187.744	137.241	111.210
282.553	187.729	136.670	110.502
285.656	186.183	139.521	110.978
284.269	184.787	144.285	114.601
287.821	178.578	148.215	117.440
289.302	182.572	145.884	116.879
289.041	184.338	143.493	115.390
289.579	175.446	138.133	122.359
293.422	166.994	130.531	132.287
295.803	165.031	130.343	134.056
289.512	174.822	145.191	127.431
289.748	164.309	156.441	130.703
285.814	164.077	152.997	134.010
287.177	162.106	165.266	132.362
290.493	162.136	159.105	128.887
287.255	163.308	170.327	126.753
290.624	164.020	177.334	126.170
300.387	166.863	154.045	122.983
277.235	167.396	153.708	124.264
276.111	167.388	155.312	123.213
273.295	166.782	152.184	123.436
251.043	173.095	150.395	120.710
256.872	171.362	147.211	123.423
257.698	181.546	134.115	114.808
254.457	183.240	117.722	114.910
244.303	181.531	108.330	116.816
239.120	185.153	128.826	114.298
231.986	181.226	136.994	123.396
228.664	181.403	150.009	122.721
216.763	180.539	147.768	127.075
211.987	179.399	148.951	129.732
204.544	176.280	160.887	133.371
194.608	174.405	165.841	133.238
191.899	172.741	172.342	137.104
189.069	169.597	172.112	140.526
185.553	169.550	172.371	141.802
184.942	167.142	168.364	143.752
184.962	167.384	164.227	142.053
187.580	166.413	156.979	142.965
186.397	167.169	160.670	139.464
181.686	167.874	171.480	137.683
178.127	166.949	181.575	141.212
178.522	167.692	179.814	141.467
186.621	167.590	169.913	143.746
192.337	168.040	162.953	141.020
197.476	168.530	165.596	135.097
200.274	171.198	167.561	131.260
208.543	171.181	171.308	133.088
214.131	171.857	172.822	133.561
226.172	172.722	168.134	130.132
249.026	171.779	156.770	126.344
257.217	165.950	164.033	130.856
266.393	161.474	168.640	135.281
276.560	161.275	171.577	130.960
282.889	160.235	165.695	130.515
290.726	157.113	170.329	133.966
297.220	154.638	178.813	135.613
302.928	152.732	178.336	137.459
305.032	148.207	183.953	144.012
307.983	141.719	190.168	147.713
312.639	137.694	188.133	151.947
316.384	135.067	186.367	152.227
319.827	134.505	184.968	155.763
319.732	135.180	183.352	153.570
321.273	135.626	179.533	150.759
318.078	135.916	180.274	152.993
315.799	135.114	180.831	155.774
319.574	135.873	173.828	152.391
314.387	138.225	177.131	153.452
302.513	141.760	187.647	149.206
298.053	144.360	182.328	146.871
274.278	151.401	195.823	144.836
276.387	160.009	187.511	134.292
256.108	169.965	201.456	127.007
260.397	171.978	232.242	128.364
338.762	170.128	180.834	127.536
371.122	168.377	148.542	125.022
372.557	170.264	149.063	120.938
376.788	168.942	150.128	122.583
375.890	169.655	156.487	122.096
376.371	168.451	159.438	123.450
382.800	170.764	156.316	121.857
379.939	171.224	157.820	120.757
377.413	170.024	163.050	122.788
380.417	170.196	160.391	123.291
360.778	172.329	174.570	120.595
370.668	172.875	166.611	124.102
238.460	174.508	205.446	126.823
281.297	165.487	207.395	134.748
334.159	151.346	175.262	140.002
329.490	142.592	172.428	145.581
335.070	132.525	182.207	160.962
339.642	120.303	192.628	170.256
343.001	116.077	197.434	175.325
332.279	171.960	143.888	123.975
322.140	170.464	146.079	123.333
315.937	171.658	140.681	122.238
305.351	170.399	148.107	123.748
308.540	171.020	140.511	120.681
299.359	171.321	151.284	121.833
303.359	168.624	146.826	124.680
301.248	170.269	150.611	122.197
304.032	167.519	149.934	124.501
304.665	149.159	164.036	143.406
312.365	146.324	165.811	145.453
293.824	160.489	176.689	127.072
278.966	166.571	190.377	132.885
273.452	171.231	228.581	129.143
300.509	172.060	213.265	131.002
351.319	168.648	166.752	134.138
357.753	166.758	165.554	131.172
361.989	168.400	161.617	129.201
367.226	168.948	157.064	130.470
369.279	170.355	147.899	130.030
368.910	171.348	151.085	128.284
367.424	172.490	162.334	124.323
368.350	171.594	165.610	126.240
368.570	171.773	163.032	127.557
351.228	174.166	178.461	127.145
310.389	175.903	223.104	124.474
286.045	158.454	170.640	129.499
306.645	152.666	148.771	130.948
308.087	163.635	130.869	118.140
344.772	138.524	116.131	134.888
338.264	157.255	150.189	122.316
346.155	175.489	145.387	114.887
348.341	179.723	136.507	111.438
345.200	178.593	156.540	116.010
345.314	174.364	147.360	121.379
344.376	125.691	166.243	166.709
351.228	95.112	182.260	177.554
345.297	98.209	177.307	186.401
350.287	107.038	169.551	174.351
341.827	113.057	161.145	172.858
348.507	161.194	154.376	130.613
347.239	170.169	151.617	120.421
348.291	170.372	149.345	121.775
335.086	160.677	160.289	129.301
284.230	159.665	186.055	128.039
290.859	159.970	187.969	128.341
276.629	161.560	189.538	127.984
267.434	164.488	172.516	126.830
264.938	160.373	167.178	137.738
265.672	168.206	166.769	135.290
275.278	169.271	189.851	130.286
272.125	168.028	183.695	137.815
277.830	165.900	172.295	140.199
273.144	166.025	172.250	139.896
272.636	165.571	169.666	145.087
273.409	165.395	169.620	144.672
272.596	165.558	168.533	145.166
269.112	166.819	167.817	143.361
265.844	167.964	201.760	135.894
266.702	168.105	214.985	129.048
344.429	171.288	168.761	121.995
213.119	172.648	198.130	128.381
193.804	166.056	171.947	135.660
187.217	166.556	166.461	129.136
179.930	163.666	165.680	126.819
186.503	157.739	129.403	132.371
365.993	167.152	146.624	123.859
371.289	167.736	154.064	123.538
375.313	168.747	149.901	123.846
376.528	169.274	157.053	122.543
216.574	147.007	90.254	125.293
216.932	139.423	107.127	125.492
224.405	135.722	128.627	126.650
220.743	133.849	142.067	127.862
224.023	134.673	146.150	126.346
225.818	134.382	146.766	125.511
384.247	160.874	168.451	121.865
229.364	134.057	148.569	124.434
217.090	134.078	156.871	123.821
222.003	137.605	143.790	119.339
203.198	136.295	161.351	119.774
203.532	136.818	148.464	120.626
192.998	137.756	148.796	122.785
198.736	140.170	147.370	122.439
415.220	145.531	127.196	122.658
409.949	144.653	132.794	118.908
222.857	141.266	131.781	123.010
219.089	141.039	149.561	122.035
230.930	139.368	147.815	121.916
227.542	139.501	164.628	119.141
231.683	141.887	159.361	115.952
241.565	144.084	147.497	112.722
329.535	138.540	193.053	122.209
352.262	138.091	153.921	120.457
336.568	136.269	167.283	119.058
334.210	134.390	166.297	120.214
326.811	131.602	167.216	120.263
322.565	131.528	165.663	119.369
321.078	130.899	164.365	119.867
317.647	131.080	166.821	119.292
317.981	129.584	164.967	119.752
312.997	128.969	170.913	122.187
308.902	129.511	179.187	123.081
326.261	131.431	167.004	122.729
329.310	132.225	163.447	123.619
334.237	132.266	161.547	124.197
335.885	131.671	160.281	128.962
345.806	133.980	156.363	122.569
361.562	135.039	149.504	119.446
372.459	137.364	147.025	117.107
367.943	136.193	154.937	120.931
375.862	138.369	149.586	118.505
381.512	138.812	148.306	118.514
387.226	140.180	145.468	119.190
388.354	140.387	145.746	120.837
392.398	141.214	145.125	121.890
394.064	143.378	146.561	121.176
392.621	143.927	145.224	120.728
392.447	145.109	148.284	121.303
393.503	145.104	149.407	121.590
396.174	146.127	149.833	121.204
393.389	145.779	152.534	121.187
397.691	143.897	146.671	123.265
398.492	145.691	144.327	120.310
399.065	146.918	144.867	118.442
399.972	147.180	144.554	117.767
398.398	147.963	144.137	116.920
398.357	148.485	142.193	117.433
398.212	148.830	139.330	115.853
396.439	147.184	141.870	117.038
396.581	147.459	142.479	116.972
397.422	146.764	142.419	116.133
398.218	148.188	141.284	114.383
397.607	148.053	142.058	115.376
390.540	147.079	148.969	116.124
395.149	145.418	130.796	117.137
396.991	143.262	137.635	118.364
397.615	144.247	138.362	117.735
396.048	142.791	137.243	119.304
399.761	141.777	143.101	119.446
404.511	143.901	139.636	118.075
403.136	143.244	133.147	118.327
405.570	143.701	124.391	117.049
405.987	143.434	137.030	117.829
409.242	145.356	139.065	116.981
404.263	146.806	145.963	114.273
403.363	143.836	145.190	119.040
405.724	143.979	136.312	119.342
402.488	144.488	141.663	118.436
399.935	146.547	148.919	117.371
392.427	145.015	147.665	120.633
382.501	142.451	152.437	123.821
375.016	145.477	157.107	120.710
365.259	146.565	160.181	118.473
373.740	148.190	150.340	117.718
390.299	151.694	132.475	114.864
391.880	151.486	127.641	114.599
390.289	149.295	137.406	114.412
329.210	143.161	187.607	119.439
296.032	135.132	170.376	126.305
305.375	136.535	163.306	125.993
301.995	136.146	172.865	126.747
294.323	138.116	175.150	127.293
300.261	138.781	170.949	125.106
302.838	140.552	168.779	123.440
305.142	139.206	165.153	126.351
303.818	139.454	163.875	126.947
302.763	139.195	164.063	127.182
302.748	139.195	166.648	128.469
302.390	140.400	166.185	127.949
303.070	140.816	165.341	129.694
301.968	140.601	166.499	128.753
301.141	141.935	167.889	126.280
301.344	141.588	165.953	125.523
301.855	141.765	165.157	125.137
300.669	141.889	166.395	125.588
299.571	139.901	167.083	127.936
298.128	140.261	168.344	126.567
299.626	138.506	166.179	130.088
299.813	138.078	167.082	131.935
300.089	139.260	167.490	132.200
301.846	136.643	166.613	133.698
302.490	136.381	165.103	134.040
303.010	133.147	162.446	139.357
301.546	132.658	163.774	138.916
301.461	130.387	163.434	140.814
301.462	127.763	162.245	145.410
300.109	126.556	164.024	148.809
298.154	126.572	169.964	150.488
296.492	129.586	173.763	148.097
296.762	116.217	174.519	161.954
295.303	120.255	173.720	159.073
294.756	126.362	173.033	156.535
293.221	145.184	167.025	138.512
292.196	155.424	165.450	134.315
289.945	156.806	166.711	134.306
290.523	158.339	163.836	133.108
290.297	160.691	159.670	132.523
289.437	163.328	159.297	131.491
289.794	165.656	159.613	129.046
285.617	159.381	166.966	135.676
285.194	159.033	168.420	136.301
286.010	158.810	161.758	135.801
284.565	164.981	160.668	130.105
283.847	169.447	164.146	125.751
283.211	171.582	164.987	125.666
282.844	169.592	164.200	127.723
282.620	167.657	163.046	131.046
281.004	167.004	162.477	133.057
280.780	168.877	160.497	129.810
278.821	173.673	161.706	124.981
279.907	168.742	158.316	131.891
280.340	172.762	153.429	128.251
275.302	173.693	157.429	129.330
271.016	175.927	160.057	125.120
267.977	179.914	160.919	119.225
266.839	179.438	161.167	120.389
266.901	179.002	161.149	124.097
265.996	176.440	160.909	124.890
269.367	175.524	156.387	124.951
269.563	172.994	157.942	125.540
270.865	170.190	158.318	126.131
274.191	166.543	158.026	126.681
275.653	169.936	157.043	120.489
275.957	171.848	155.362	114.699
276.202	172.725	154.385	109.719
276.346	171.503	155.560	105.974
269.297	163.625	155.311	110.207
274.809	121.415	150.613	143.928
275.998	108.770	145.338	144.172
286.798	117.368	138.335	133.075
308.820	117.092	129.418	136.492
281.919	114.028	149.223	148.218
255.660	109.996	175.589	138.672
286.747	104.442	146.258	166.090
268.346	107.986	160.980	148.048
275.817	105.894	153.606	141.480
283.014	107.970	148.564	147.286
277.768	108.134	158.282	132.531
301.963	114.562	142.780	144.747
267.719	115.295	161.627	140.523
276.186	115.027	161.498	142.066
292.044	118.233	177.291	138.571
300.814	113.416	143.728	141.900
301.950	117.399	168.459	136.081
300.715	114.935	173.511	140.983
252.179	108.672	185.393	143.755
237.243	110.404	156.483	138.397
235.704	113.571	133.776	128.731
228.288	107.189	132.515	131.984
238.952	100.729	134.256	141.931
237.520	97.262	140.905	144.204
242.140	94.044	139.657	143.559
237.751	90.918	143.068	147.739
237.721	91.323	146.995	148.263
237.043	90.295	149.637	151.069
239.718	90.252	139.525	149.584
238.683	90.971	143.406	148.483
241.629	91.417	139.602	148.435
242.944	91.687	141.866	148.947
243.657	92.055	135.910	148.329
245.211	94.523	135.661	145.324
247.393	94.233	136.256	145.437
247.302	96.548	138.814	143.709
246.944	98.022	141.674	142.569
245.838	101.447	143.770	140.892
243.489	105.428	148.275	135.478
240.167	111.094	155.242	133.011
233.249	122.213	150.864	128.112
228.088	127.110	155.661	127.561
218.132	132.393	160.257	129.401
210.975	138.521	158.549	129.745
196.396	142.326	167.565	131.714
172.192	141.009	195.400	140.632
163.396	148.598	194.625	135.617
149.245	153.105	198.307	136.147
142.596	152.294	195.876	130.516
138.253	151.755	196.272	134.632
141.328	154.184	191.686	127.580
137.102	156.589	200.711	122.481
145.253	153.933	195.513	133.109
155.121	155.172	200.417	132.784
164.043	149.836	205.182	135.659
187.562	147.952	186.919	146.150
196.153	145.823	203.867	141.123
213.354	135.991	194.056	135.933
230.793	134.265	192.054	140.667
274.976	126.341	159.978	138.694
288.633	119.711	182.396	134.536
308.346	106.752	166.394	168.513
306.943	100.897	175.141	174.046
303.396	95.533	181.990	175.356
300.932	125.607	169.180	144.674
306.081	111.630	168.322	157.873
306.945	125.301	156.260	146.605
311.806	117.848	157.012	152.121
300.607	123.942	178.858	142.079
272.653	138.421	179.528	129.557
241.154	153.348	185.006	122.679
203.321	158.686	205.598	121.719
179.195	147.726	201.551	136.943
160.125	148.645	214.227	141.124
156.158	144.965	203.170	146.040
154.872	144.185	195.498	148.060
159.846	146.641	203.373	136.370
171.774	156.523	206.814	128.748
192.186	145.689	191.889	149.383
209.290	144.726	175.722	149.912
237.793	149.325	145.351	138.378
268.681	148.983	115.979	132.485
287.863	151.501	105.838	125.248
291.932	155.795	107.340	118.843
283.412	159.175	120.752	120.552
277.531	154.642	128.565	108.685
255.463	155.516	149.514	111.529
238.829	151.523	163.067	115.917
234.188	153.446	170.413	120.118
227.051	148.038	185.366	137.390
226.894	150.171	184.387	140.457
229.845	149.386	175.613	139.190
230.410	151.945	177.982	136.907
230.316	153.060	172.600	138.251
231.828	153.662	171.602	137.006
234.121	153.715	169.856	136.006
232.735	154.603	172.936	138.064
229.271	153.596	175.447	141.190
227.392	153.870	179.749	140.995
222.713	153.153	179.575	142.973
219.212	151.982	178.804	142.909
214.798	151.651	182.497	142.716
209.533	150.671	183.444	145.131
204.397	150.148	184.978	144.958
201.552	149.153	185.592	145.811
199.227	149.230	185.093	148.143
199.559	146.525	184.230	149.411
197.885	147.525	184.858	145.649
197.558	148.458	186.624	146.492
199.758	146.544	185.890	148.025
201.745	148.107	187.544	144.454
205.312	149.742	186.469	140.250
206.459	149.690	186.900	140.330
208.795	149.043	186.764	140.227
210.292	148.584	186.138	139.711
210.821	147.658	184.088	142.281
211.628	148.033	181.705	141.002
209.377	147.680	184.579	140.888
209.623	147.761	185.420	139.848
209.600	147.675	184.541	139.777
209.208	146.281	184.903	141.013
208.953	148.024	185.465	139.340
208.898	147.953	184.737	139.350
206.992	149.937	186.382	138.631
202.658	152.171	190.748	138.070
198.771	152.419	191.593	140.256
195.795	151.411	191.591	143.847
187.698	155.854	182.604	135.926
186.717	153.334	179.911	142.313
187.802	155.660	171.587	140.272
198.311	154.542	149.303	142.011
215.756	150.257	114.611	146.277
212.897	146.698	98.233	160.543
228.796	146.770	105.825	137.602
243.778	148.149	122.073	128.477
231.999	147.604	151.703	127.956
230.230	145.378	169.030	131.765
227.338	145.784	170.667	129.180
228.112	143.553	176.900	129.513
233.899	142.365	173.087	130.142
237.891	143.234	170.707	130.235
238.962	142.352	171.203	128.231
244.754	142.299	167.447	127.715
243.559	142.225	169.267	129.198
245.875	142.792	166.989	128.423
248.093	143.348	163.815	128.288
248.593	143.106	163.726	128.756
250.640	143.733	161.764	127.643
247.219	142.063	165.564	128.544
250.688	143.125	159.767	126.071
251.573	143.994	157.330	125.406
241.349	142.348	164.752	127.100
235.713	143.020	165.657	128.328
234.179	144.575	165.131	127.350
231.435	146.781	164.606	127.677
227.147	145.965	167.981	129.875
224.159	146.179	169.164	130.082
221.274	145.969	171.388	129.913
220.819	148.883	171.466	129.285
221.776	147.543	168.692	129.144
223.231	147.783	163.402	125.909
228.056	146.236	157.154	128.218
217.670	145.771	165.463	127.165
219.818	145.151	164.404	129.917
219.731	144.320	160.107	131.694
226.262	142.058	155.307	132.817
225.291	142.690	156.663	130.049
223.109	142.641	158.330	127.397
222.502	143.003	157.134	125.574
226.415	145.357	160.563	123.794
225.680	143.411	159.840	126.655
225.493	143.216	159.091	125.757
227.265	141.575	162.448	127.406
224.175	140.102	165.889	128.806
224.285	141.375	165.531	127.268
225.399	141.022	164.508	127.593
228.100	140.765	163.809	129.004
231.117	141.880	161.707	126.444
227.020	144.261	165.151	122.360
230.823	143.784	164.435	124.135
230.080	142.705	161.746	125.932
233.866	140.792	158.707	127.670
240.295	140.281	150.823	125.172
246.231	141.827	141.490	122.991
253.195	142.489	130.525	122.063
261.199	140.463	118.741	124.472
271.476	138.657	106.627	125.471
280.503	139.840	94.886	123.614
287.189	142.446	85.799	124.792
293.572	144.335	70.157	123.190
305.040	149.408	58.426	121.042
291.992	163.762	72.167	115.141
292.431	168.602	90.233	109.976
293.282	173.175	90.691	112.411
295.572	176.130	82.543	109.134
391.473	154.194	72.554	122.192
390.133	152.687	69.290	125.355
386.164	149.889	74.005	126.481
386.473	154.709	70.199	122.138
393.595	153.287	62.723	120.375
394.797	155.525	62.544	118.201
394.554	154.448	62.621	123.371
397.097	154.745	63.210	125.174
397.684	153.789	61.749	126.432
385.023	148.886	80.388	129.446
280.028	153.583	90.023	124.094
265.722	156.244	107.496	121.095
253.337	156.747	122.675	122.581
241.482	158.722	141.854	118.934
230.194	160.082	160.993	119.171
219.334	158.846	175.112	120.149
210.909	157.852	180.607	124.317
207.204	157.878	181.292	123.338
204.571	157.852	184.025	122.150
205.189	155.435	186.911	119.692
205.880	153.981	188.151	118.452
206.741	153.765	178.852	118.526
211.785	155.205	170.336	117.729
218.399	153.850	161.548	118.556
230.063	154.399	149.199	116.260
237.928	154.396	130.581	114.061
248.874	152.352	116.830	112.546
256.254	151.186	105.959	112.725
264.519	146.652	94.619	117.487
271.921	146.926	87.458	116.097
279.619	146.627	83.284	113.904
280.921	146.756	87.944	112.683
275.571	149.094	106.584	109.500
267.722	148.852	133.611	104.822
251.480	146.380	164.979	102.302
251.829	150.577	161.430	93.672
254.856	144.416	140.521	105.287
275.453	142.691	102.514	110.324
287.616	138.500	89.088	118.288
274.011	140.817	126.349	120.760
247.103	144.236	164.064	121.676
236.855	149.485	169.997	122.372
228.472	151.592	170.220	127.524
234.721	155.765	149.997	123.819
247.849	152.553	102.929	128.985
278.529	129.704	78.909	145.901
236.337	150.558	121.981	122.704
231.471	144.701	128.855	124.912
243.351	145.744	127.840	120.412
257.469	143.505	122.164	123.238
260.363	142.461	116.937	124.196
256.629	143.118	119.033	122.020
241.638	141.655	136.418	116.896
229.293	153.329	144.848	98.817
235.780	152.505	120.055	101.289
249.323	147.978	94.112	109.784
254.437	150.933	86.894	124.708
238.837	165.335	105.044	119.623
225.943	172.437	124.118	120.920
198.555	179.048	151.319	119.389
176.261	179.791	165.450	112.998
158.722	177.984	180.413	114.881
159.386	176.104	171.443	112.390
155.486	175.311	175.495	115.025
159.312	172.913	189.043	123.676
176.360	168.914	196.151	137.076
201.140	156.022	180.180	141.296
255.439	143.291	119.521	142.528
272.996	127.800	106.293	141.124
259.767	124.505	127.870	116.103
250.497	122.758	148.558	73.256
256.622	106.157	143.371	76.745
282.578	84.546	117.126	104.368
308.887	77.456	96.491	123.009
327.786	68.154	94.457	127.478
384.723	156.929	146.931	125.996
384.656	159.174	170.009	130.379
378.521	160.533	173.598	130.743
377.198	157.956	165.402	135.453
373.818	161.452	162.497	133.247
370.083	161.351	152.025	134.682
368.654	156.587	141.824	139.233
355.775	170.392	144.883	121.040
347.650	130.960	181.726	164.737
341.999	113.679	189.507	180.859
334.488	119.518	195.578	168.735
326.488	142.117	183.995	146.691
297.532	153.471	195.831	130.052
297.438	155.477	185.859	135.220
258.079	153.658	210.083	136.871
238.994	155.061	189.783	130.380
243.543	158.529	192.016	132.021
379.745	156.363	155.916	140.788
241.017	159.871	223.573	136.453
242.208	157.459	184.417	143.136
278.356	147.810	132.852	140.542
303.390	147.889	111.736	127.120
295.020	146.178	191.226	157.758
366.903	157.744	187.390	143.576
384.361	169.381	163.962	131.045
390.676	168.291	158.289	124.697
395.974	172.665	151.782	115.318
395.679	172.701	150.324	130.493
396.344	171.722	149.476	138.556
396.477	172.190	148.258	131.510
403.933	170.071	139.611	132.159
398.626	172.090	143.765	127.269
401.020	178.229	143.016	127.364
378.194	174.589	167.278	132.142
393.632	171.551	154.518	130.192
340.556	139.181	144.627	158.685
324.584	115.266	118.714	143.018
300.830	122.084	152.685	125.868
293.535	134.249	160.540	129.035
285.556	137.827	166.954	136.449
270.289	144.373	181.012	135.600
258.743	146.129	188.425	141.538
253.704	149.101	180.555	138.231
246.898	158.044	189.003	133.919
246.952	162.083	184.765	133.590
244.678	160.241	179.327	140.737
242.464	164.166	175.940	139.481
233.445	164.738	174.539	137.129
231.492	167.620	159.422	131.646
223.534	167.268	152.364	131.703
212.242	166.048	152.117	130.876
202.316	168.887	163.432	130.732
448.895	148.748	106.583	134.552
444.162	147.131	108.579	125.573
260.614	165.232	135.330	132.320
206.987	165.218	185.147	135.592
217.358	170.956	190.066	128.910
223.554	171.730	181.705	137.017
232.377	170.954	189.142	141.362
243.117	167.923	189.794	144.140
249.872	171.095	184.090	138.232
266.543	164.619	165.596	145.495
275.112	173.943	165.355	131.206
283.694	170.539	155.719	130.256
288.084	174.924	155.367	123.607
289.731	176.878	152.999	121.177
289.134	179.999	155.806	117.505
285.189	172.488	158.950	129.492
271.247	173.389	165.484	132.723
262.482	172.011	174.135	134.976
246.626	167.167	185.879	143.138
233.710	176.358	192.281	137.587
213.969	177.344	197.398	130.281
201.905	181.118	195.880	127.825
194.988	174.089	190.958	136.711
194.991	177.359	180.507	132.818
190.881	172.830	173.840	137.636
190.365	173.125	167.704	134.550
185.136	173.587	170.777	134.429
184.977	170.242	177.052	135.948
193.070	167.967	177.146	133.334
202.384	165.488	186.622	134.699
222.970	157.963	193.327	143.375
249.481	154.028	181.031	139.301
277.044	148.828	174.591	136.616
291.582	141.261	173.762	128.973
321.342	129.038	163.682	132.826
335.148	120.845	174.868	143.119
352.636	118.960	167.417	178.300
355.474	117.505	169.817	185.484
351.911	119.634	172.513	176.376
353.279	131.591	169.705	154.335
350.521	133.641	160.412	160.025
339.001	141.446	169.594	149.069
325.397	145.227	180.895	150.158
287.826	150.929	196.085	142.981
272.660	154.858	146.342	141.929
255.900	164.344	163.665	131.706
225.548	160.049	185.296	133.664
203.526	154.813	193.401	130.798
193.169	156.276	176.719	131.243
189.916	153.336	170.596	133.908
190.979	153.323	175.329	128.548
195.172	158.319	175.333	123.135
209.878	162.391	171.565	121.886
225.117	156.170	165.399	129.924
247.880	156.473	151.089	133.963
268.702	154.529	147.035	130.336
282.649	151.571	164.166	131.441
319.786	145.984	167.884	133.822
327.416	142.316	156.819	129.607
340.780	139.316	176.287	149.235
359.022	135.799	166.483	138.943
367.075	135.462	154.392	127.264
362.542	134.805	160.421	122.386
345.926	138.500	167.596	119.802
328.873	137.551	171.986	125.336
322.631	139.599	166.696	131.904
293.424	146.242	179.059	138.121
268.301	142.682	190.143	145.557
258.446	147.305	188.840	133.353
241.469	145.538	187.767	137.767
233.342	139.863	171.885	137.034
231.578	142.360	174.820	127.759
230.875	143.004	175.654	126.545
231.973	141.755	176.933	130.573
249.650	141.759	164.585	133.174
263.193	146.230	179.478	133.106
276.916	145.997	180.803	124.625
295.382	143.571	176.312	135.127
319.187	139.582	176.253	138.145
327.091	140.231	174.274	135.275
335.709	135.710	170.938	127.245
355.128	136.539	154.981	122.498
363.846	132.854	144.287	127.059
360.918	133.630	148.226	125.679
345.779	138.619	160.952	121.344
333.298	143.438	165.594	122.178
312.224	147.006	178.569	127.447
292.944	151.608	187.624	123.874
284.973	158.473	203.483	132.545
260.155	159.415	183.467	124.263
229.324	146.424	187.077	142.712
222.312	156.290	180.151	126.683
206.305	153.000	186.280	126.941
204.281	153.400	181.932	130.371
213.296	151.842	175.058	136.221
203.855	153.521	185.545	132.462
217.169	153.598	194.864	134.769
227.612	165.807	193.156	132.529
239.333	153.625	189.308	137.553
252.429	156.269	176.676	133.595
271.802	155.032	159.127	134.451
277.812	156.902	157.887	131.484
282.786	153.502	152.919	132.702
280.914	151.269	165.207	132.057
274.242	155.508	175.431	132.269
275.757	156.634	172.367	136.516
273.179	152.475	176.761	141.432
274.888	163.383	174.956	130.378
271.813	154.411	175.885	142.468
272.628	156.381	172.982	141.487
272.135	156.905	168.670	142.807
268.010	160.615	174.311	141.300
267.704	161.967	176.095	141.874
270.311	161.365	173.896	142.582
275.442	163.224	169.498	140.546
267.881	164.138	180.390	139.174
270.719	165.808	176.281	138.561
274.023	166.552	171.645	138.149
279.602	165.006	161.445	140.201
281.118	164.617	158.795	141.367
282.566	165.502	156.287	139.279
285.552	163.745	151.096	139.935
287.579	165.411	147.532	136.147
289.944	163.961	141.519	133.717
292.059	167.366	136.912	131.057
293.591	168.443	135.621	129.522
294.241	166.959	149.528	134.056
290.917	161.971	163.540	137.019
290.655	162.960	172.181	137.297
290.831	164.265	168.309	136.331
296.300	163.551	156.753	136.971
303.062	165.303	141.511	136.163
309.982	165.228	130.615	136.010
311.838	161.468	130.408	142.240
309.947	163.378	148.531	140.824
301.942	164.549	164.145	137.710
297.361	166.070	173.524	137.549
291.402	169.595	176.190	138.347
290.598	168.881	179.481	138.448
286.087	171.600	177.605	135.108
291.995	170.153	168.776	136.151
292.757	170.058	169.635	138.100
290.465	169.201	171.344	138.372
290.514	166.540	170.435	141.087
289.705	168.414	170.308	138.306
289.535	167.454	170.368	137.889
288.663	164.780	163.020	138.315
286.968	165.266	161.776	135.538
284.673	164.032	161.132	137.640
282.054	162.413	164.770	140.005
279.582	164.299	163.517	136.609
277.224	164.268	163.261	136.585
270.913	166.233	165.891	135.831
268.799	165.706	160.959	137.464
262.038	166.629	165.553	136.884
247.718	169.126	172.988	135.456
245.092	170.860	170.673	134.434
241.039	170.939	171.393	131.238
236.355	170.478	172.785	128.311
230.637	170.918	172.397	133.238
226.692	171.304	172.154	130.008
224.090	171.803	174.036	130.765
222.379	171.830	174.837	132.086
221.233	171.922	175.313	131.550
222.217	172.852	175.708	127.324
224.179	170.334	176.377	127.167
228.556	168.213	173.789	130.065
232.695	166.817	173.191	135.941
233.385	165.758	177.736	134.949
236.457	169.115	177.697	133.281
237.879	171.625	179.959	132.476
240.651	166.210	182.435	137.954
241.439	165.393	186.105	138.122
246.521	162.863	186.291	141.325
253.017	166.439	179.952	135.564
264.983	162.221	167.828	140.818
277.880	163.535	149.776	139.821
284.180	163.962	140.608	137.164
294.001	162.142	129.624	137.051
309.392	160.607	118.223	135.934
319.805	161.812	116.870	133.348
323.159	162.968	128.411	129.184
319.747	158.715	146.168	131.508
320.239	158.375	163.068	130.435
322.050	153.173	168.657	134.029
329.241	153.971	166.333	129.273
333.424	149.890	168.806	127.908
338.280	149.695	160.342	134.132
346.764	153.562	146.204	128.584
353.223	154.529	139.741	132.676
346.890	156.293	145.881	129.245
341.852	155.629	149.868	131.806
335.860	154.899	157.074	135.175
319.433	153.536	171.130	135.514
304.093	153.555	182.143	139.239
297.079	154.298	182.444	138.251
288.399	155.259	181.094	136.786
282.203	152.124	180.270	143.971
278.306	151.916	177.238	144.682
282.894	152.499	164.881	144.244
272.372	154.303	175.355	135.220
263.410	153.406	181.697	135.707
259.976	152.858	182.353	140.265
259.062	152.938	180.568	139.717
259.756	153.286	177.511	141.289
258.362	153.841	182.308	129.056
253.895	156.565	186.734	136.866
258.930	156.933	180.565	143.248
260.628	158.121	179.465	140.522
260.392	159.883	179.550	141.101
264.443	161.262	176.296	140.536
251.941	162.838	188.812	142.939
250.224	165.377	191.583	140.180
249.046	168.478	192.012	140.167
244.523	168.900	198.358	132.383
251.442	169.194	187.237	134.851
253.855	168.891	184.796	147.738
251.775	167.008	187.092	150.015
229.918	165.068	208.190	149.206
230.961	162.524	203.348	151.002
228.253	159.103	207.063	159.207
224.991	160.316	191.692	158.902
219.983	161.194	203.667	156.866
220.429	156.544	197.832	162.941
215.733	159.924	203.624	157.938
211.594	155.838	202.232	163.238
206.904	156.623	210.241	162.098
204.696	155.693	208.547	167.085
197.276	155.252	214.118	167.815
194.218	157.145	216.251	157.477
187.938	154.381	219.489	164.280
193.544	150.130	211.310	171.187
197.516	152.361	201.615	168.416
202.619	152.753	195.161	166.759
208.078	154.052	187.694	166.822
212.040	156.692	175.367	163.069
213.863	158.591	169.048	162.819
214.115	162.360	168.878	159.655
208.601	164.723	178.282	160.152
196.349	167.347	195.684	160.736
189.136	171.313	201.198	163.057
172.756	175.365	217.729	154.976
164.501	175.074	216.783	160.543
155.320	184.909	223.730	148.205
150.245	180.634	225.494	157.060
144.889	176.375	226.221	163.906
132.565	168.159	230.717	169.578
133.478	169.719	225.026	166.949
129.357	167.318	232.512	168.915
133.251	167.056	235.352	167.606
136.758	164.982	240.947	168.707
144.747	164.933	241.394	165.600
158.523	156.286	232.264	167.855
169.297	151.309	226.294	173.120
186.979	152.741	208.431	172.331
200.235	150.005	197.409	167.737
217.129	147.267	183.253	165.818
227.989	145.017	177.298	164.647
227.772	145.970	181.412	164.946
231.988	149.579	184.121	162.880
246.762	151.782	165.752	158.989
248.064	156.968	165.854	157.511
239.412	160.701	177.553	156.457
229.043	162.807	190.033	159.445
220.497	168.913	196.514	160.035
209.197	172.117	202.921	159.922
199.309	178.525	206.756	159.530
192.914	183.574	204.895	158.278
189.654	185.163	189.411	156.824
188.412	187.485	172.816	159.851
178.172	192.655	178.694	154.450
165.362	192.589	192.502	152.306
151.726	196.670	211.198	152.095
146.194	193.899	217.914	157.488
144.481	193.543	219.656	160.131
145.908	191.772	219.498	160.659
145.177	193.259	224.399	159.578
152.479	191.432	228.936	158.374
159.065	194.287	228.241	157.683
162.931	196.256	234.030	156.122
178.290	189.972	234.330	160.843
195.292	199.014	224.043	148.472
202.429	187.348	217.393	162.337
221.360	186.184	218.255	160.011
238.369	180.829	209.490	166.092
248.087	179.635	206.903	161.366
257.171	177.954	205.941	160.462
267.078	175.226	199.983	162.900
268.329	173.784	204.350	165.983
273.726	173.048	200.098	166.075
275.209	173.807	195.680	163.141
261.609	174.107	201.928	160.554
261.438	178.020	198.280	153.199
250.685	180.032	196.776	160.837
227.628	181.583	212.520	158.515
219.427	181.657	206.771	161.072
195.483	182.107	220.618	162.812
191.005	184.935	208.065	160.100
187.300	186.370	197.290	161.575
177.889	184.233	196.622	164.414
168.939	194.429	195.179	155.422
167.471	192.137	184.662	160.738
165.516	181.772	176.023	171.178
156.433	201.389	177.394	152.444
143.894	201.995	183.657	153.079
141.268	202.889	184.522	153.789
137.683	204.500	198.986	153.096
140.518	202.319	212.879	156.182
147.318	203.964	221.735	151.380
186.633	203.853	201.057	151.410
200.705	199.611	210.003	155.268
229.904	196.370	199.357	147.493
261.153	189.534	195.961	153.112
278.701	185.644	199.254	150.683
294.883	177.912	199.470	138.803
321.996	170.912	174.987	141.058
333.522	165.256	164.243	139.976
342.403	169.712	145.932	128.881
344.629	172.041	142.036	126.492
341.228	168.075	141.984	130.897
335.187	170.556	159.387	126.678
315.436	170.527	171.867	132.994
297.163	174.773	179.683	139.968
289.919	180.736	171.910	141.229
271.490	189.212	162.973	139.066
258.460	191.233	153.812	137.882
217.982	194.530	172.531	134.064
191.394	195.119	160.500	135.533
162.578	191.630	167.637	134.279
144.769	194.353	150.194	127.772
129.725	194.959	153.125	120.891
116.642	187.648	143.672	130.636
111.529	182.261	129.020	135.443
110.175	186.370	131.734	129.096
109.869	184.105	132.509	131.927
110.614	186.958	132.417	129.185
118.175	196.129	143.024	118.949
135.931	205.538	153.108	114.887
155.135	203.078	165.848	123.470
178.052	202.848	178.385	128.070
200.670	202.153	188.389	128.919
242.274	194.112	183.308	134.764
273.971	184.916	188.347	139.082
293.541	173.428	197.078	132.525
329.934	162.959	164.361	127.051
352.016	151.161	152.677	126.370
373.615	139.782	153.339	130.218
387.637	129.593	148.699	129.334
390.440	123.632	153.616	132.653
385.146	121.865	161.287	136.889
373.320	128.714	146.419	131.288
378.591	138.156	132.800	125.254
358.109	147.038	132.930	123.018
320.927	161.158	160.080	118.111
296.386	169.100	162.052	124.329
269.342	178.059	161.714	130.244
245.863	189.166	180.295	130.230
220.047	193.891	178.332	131.554
195.970	192.509	177.683	139.143
184.780	193.722	162.069	138.490
145.007	195.865	177.166	136.287
126.420	200.032	177.599	128.579
112.449	194.208	169.195	133.897
104.744	189.921	164.457	137.247
101.067	191.248	164.225	132.785
99.330	190.655	165.374	133.067
99.911	188.896	166.597	136.716
105.788	197.812	180.972	126.571
122.800	201.930	183.675	122.603
