439.000	222.000	25.000	43.000
437.829	221.466	27.269	42.901
437.708	221.287	28.118	43.044
439.867	222.560	26.377	43.353
443.824	225.502	25.373	40.032
448.537	229.069	23.466	38.406
452.382	232.780	20.860	40.098
456.938	235.757	21.548	42.157
461.453	236.316	19.595	42.738
470.155	239.928	16.735	40.297
471.031	244.877	18.323	38.524
473.706	244.752	17.259	39.367
476.186	245.509	20.075	39.489
477.213	245.402	22.077	38.073
478.868	239.324	30.768	37.538
486.055	229.346	35.959	41.206
501.110	218.633	34.278	41.765
502.817	218.424	34.797	41.755
489.075	247.964	23.657	39.588
491.272	247.662	20.926	38.707
492.677	248.596	20.775	37.696
493.493	249.244	22.849	41.051
493.371	247.626	27.389	39.261
496.614	247.828	27.171	40.020
498.737	239.565	27.803	44.258
504.954	244.778	32.996	40.631
508.257	238.537	37.947	44.358
516.049	234.477	37.275	42.943
519.154	237.159	38.214	40.594
523.233	232.974	35.991	41.954
525.334	226.581	33.647	42.851
528.052	226.843	32.048	43.618
530.430	223.026	31.871	42.394
534.581	220.382	36.930	40.548
536.916	219.081	39.171	39.084
535.913	219.949	48.873	38.613
534.952	216.547	56.302	43.310
533.955	220.348	60.729	41.075
529.469	220.158	66.865	46.025
529.044	221.139	72.114	49.945
529.138	222.263	70.820	53.308
533.102	225.616	68.034	49.863
534.003	229.313	66.419	50.328
536.329	232.227	64.269	52.143
536.833	233.508	64.437	51.825
534.459	235.643	67.192	52.093
527.603	236.181	75.571	56.728
525.412	233.353	77.432	62.758
524.996	232.025	79.534	65.513
525.215	232.377	81.396	63.132
527.236	230.696	78.605	64.193
527.477	228.204	79.368	65.193
531.644	230.293	72.316	50.238
532.032	230.528	75.720	54.283
538.074	228.558	68.920	54.416
544.405	231.437	62.397	50.464
547.709	232.057	60.400	49.421
549.242	231.815	62.435	49.255
545.225	229.267	73.407	55.119
546.071	228.397	73.244	58.270
552.908	227.808	66.460	62.116
553.655	227.480	65.579	63.243
554.395	227.806	65.826	62.875
555.428	228.355	67.606	62.410
554.260	229.781	71.831	60.526
552.329	231.046	74.862	59.068
552.668	230.227	74.955	60.334
553.970	230.067	72.454	61.717
554.724	229.465	70.381	64.910
553.752	229.454	67.978	65.119
553.018	230.034	68.465	65.138
546.990	233.480	73.579	61.362
547.276	235.097	71.935	59.532
545.057	235.163	72.638	60.553
547.681	234.838	68.166	62.552
545.333	236.072	69.010	62.058
543.776	236.425	69.287	62.612
543.433	237.358	68.616	62.298
543.292	237.490	68.496	62.630
543.948	239.155	67.840	59.706
542.421	238.561	68.205	59.011
538.945	236.496	70.755	58.854
541.033	238.034	69.074	54.370
534.679	237.917	72.595	54.833
535.562	238.175	69.491	53.828
528.681	238.642	72.230	55.062
531.397	237.252	69.251	53.089
521.639	235.419	77.660	59.436
526.623	236.240	72.431	54.963
524.589	237.304	73.045	56.313
528.471	237.277	68.297	53.433
530.177	237.966	65.981	51.462
533.828	238.560	62.891	50.879
535.105	237.817	62.982	51.174
533.716	237.701	72.867	55.894
533.821	237.063	72.693	58.297
535.838	236.617	70.071	60.047
539.629	238.335	65.823	59.421
532.434	237.020	75.734	59.620
539.511	236.651	69.033	54.866
544.666	238.236	65.496	50.297
547.805	237.156	63.076	50.069
548.388	236.762	64.439	49.350
548.101	235.536	64.765	51.789
548.658	232.619	63.489	55.965
546.412	233.585	67.189	55.085
545.844	233.108	69.351	54.752
551.448	233.014	64.436	51.874
552.698	233.086	63.379	51.042
553.859	233.249	61.807	51.042
555.094	233.231	58.298	51.365
556.259	232.786	54.955	51.877
554.436	232.694	55.825	51.151
549.494	232.694	60.480	50.020
545.163	233.509	62.170	47.931
542.670	233.151	57.960	47.228
541.530	231.562	53.888	48.330
537.807	231.397	53.279	48.478
531.405	231.733	54.830	47.619
525.208	233.378	54.144	45.451
515.640	235.740	52.400	43.693
509.125	238.641	49.876	41.760
503.477	241.560	46.910	38.450
498.627	243.922	45.579	36.126
497.365	248.075	40.998	34.799
494.785	247.952	41.881	34.988
492.517	252.026	45.554	34.175
501.318	247.254	45.831	33.258
506.359	246.949	42.248	31.504
515.379	246.158	43.059	30.579
520.022	243.228	44.611	33.579
566.637	247.721	43.406	44.101
545.832	248.229	48.907	46.114
541.389	245.322	46.464	49.355
527.078	244.699	41.948	50.021
517.241	250.426	37.258	49.848
511.425	250.999	39.039	46.351
500.435	250.473	42.060	47.772
481.676	249.043	48.896	41.968
467.977	250.509	57.052	40.284
442.861	240.793	64.742	53.557
438.477	239.467	59.545	54.587
434.926	241.411	51.716	49.742
433.864	244.057	45.372	46.697
435.120	245.170	36.117	44.768
430.833	244.462	28.827	44.283
421.946	239.204	39.918	51.162
418.510	238.810	43.761	50.078
418.015	237.821	44.794	49.387
417.506	236.110	45.444	47.253
416.041	234.431	48.772	41.352
414.428	233.933	50.218	36.486
412.827	231.955	51.923	35.729
410.860	230.278	53.859	37.686
409.879	229.036	54.879	39.621
406.622	226.385	54.223	42.081
404.894	225.664	56.371	40.951
402.695	224.899	58.309	36.779
400.878	224.837	59.247	34.870
398.085	223.887	56.631	33.483
400.358	221.430	59.134	33.887
398.606	217.523	57.761	38.714
399.999	215.094	54.245	43.436
405.040	215.037	50.352	48.423
411.151	214.273	42.343	51.988
415.787	219.466	32.236	49.814
419.052	228.888	24.281	42.855
417.723	231.719	26.137	40.087
417.664	234.411	37.414	39.369
407.420	239.271	50.815	40.991
402.556	241.137	56.399	42.774
399.668	241.602	60.197	46.395
398.152	241.224	61.708	48.352
397.065	240.920	62.666	50.428
397.731	239.950	61.634	51.905
397.750	238.748	62.489	52.930
398.082	237.328	60.211	50.910
399.228	237.090	57.316	49.085
400.727	236.135	52.699	48.758
399.978	235.307	49.673	49.305
400.887	237.117	41.116	47.979
403.091	239.403	32.863	43.990
403.524	237.061	32.642	43.624
397.496	229.466	41.718	53.723
394.494	231.279	54.906	52.832
390.029	227.699	64.374	54.754
385.471	227.087	68.401	52.533
385.935	225.088	71.300	55.013
383.149	222.228	71.527	56.225
381.467	219.620	71.204	58.231
384.904	215.864	63.467	62.456
388.422	211.205	51.783	64.495
398.069	216.213	36.599	57.287
400.255	221.040	30.050	49.420
402.599	224.019	26.600	45.660
402.582	217.465	32.200	48.988
392.994	221.922	51.585	47.720
388.600	220.771	56.388	50.752
373.496	224.217	67.344	49.465
363.494	223.858	70.308	53.018
361.732	222.881	68.627	55.473
356.992	220.550	64.557	60.284
353.049	220.687	61.198	59.402
350.166	220.373	61.445	60.142
345.656	221.246	61.647	60.687
338.816	221.816	67.101	61.117
332.895	223.392	75.393	60.624
335.636	224.740	69.379	58.029
342.285	226.685	47.478	53.009
355.786	229.953	30.625	49.832
351.738	224.669	44.952	54.213
348.591	222.306	63.672	53.923
343.486	220.257	70.466	55.219
343.431	219.458	69.355	52.240
346.820	212.824	63.533	53.312
348.470	205.692	57.477	58.755
350.185	201.972	51.155	59.138
351.388	200.891	45.260	58.287
352.324	202.737	40.835	55.262
352.847	207.081	38.369	52.344
352.153	212.099	34.866	49.706
352.284	216.668	35.489	47.545
351.403	225.338	42.732	39.852
350.452	228.615	52.230	39.879
349.121	227.658	63.151	46.708
349.876	227.541	70.935	54.260
353.051	227.385	71.152	57.653
359.259	228.758	68.155	58.139
366.711	231.092	66.190	55.183
375.713	231.746	61.925	53.930
386.995	232.360	56.707	49.682
407.852	231.741	49.042	48.416
424.934	232.499	39.496	48.816
435.103	235.515	34.045	44.779
437.990	235.849	35.542	42.806
469.116	240.097	23.869	43.754
474.341	241.519	37.761	43.153
480.917	241.101	35.508	44.864
485.829	241.079	37.169	44.243
485.240	236.253	39.143	49.247
513.386	238.245	48.486	48.746
508.202	234.027	40.804	48.505
506.286	234.181	46.407	54.918
499.370	233.259	52.845	52.266
486.967	231.804	65.531	51.034
484.352	232.103	65.076	52.016
478.383	230.528	67.750	52.109
474.284	230.917	67.459	51.309
471.006	231.209	67.651	51.120
466.757	230.501	69.188	53.867
465.546	229.911	65.886	55.264
463.609	229.148	59.755	55.333
462.441	228.337	57.615	55.863
461.614	230.717	53.313	53.370
463.762	233.317	45.673	53.945
466.792	235.667	39.723	51.152
466.102	236.393	34.930	51.218
462.908	234.427	41.364	53.676
459.208	232.430	46.956	54.579
453.655	233.439	60.334	50.421
452.374	234.566	62.290	49.678
451.918	234.421	60.837	49.176
452.331	235.132	58.561	49.401
446.698	237.324	62.384	48.250
443.084	236.565	62.806	50.746
439.202	238.344	66.016	53.282
437.709	238.536	59.035	54.793
436.238	240.652	55.789	54.495
432.250	243.494	56.368	48.683
430.471	245.632	55.666	50.429
422.504	246.221	62.220	53.424
420.535	246.639	62.541	53.004
420.384	248.403	60.167	50.483
419.198	248.587	59.421	50.545
419.024	248.999	58.192	49.102
418.777	247.260	56.787	50.019
414.847	247.993	58.135	48.565
413.672	247.607	57.379	48.620
410.516	246.385	60.241	50.289
407.277	246.098	62.396	51.530
405.068	245.619	67.419	52.770
405.633	245.829	64.077	52.527
407.004	245.299	61.956	51.447
408.614	245.287	60.709	50.834
410.569	245.953	60.436	49.132
412.064	245.999	62.766	48.600
415.456	246.115	63.698	48.983
417.991	245.764	61.475	50.535
421.097	245.276	60.752	51.206
424.162	245.556	59.360	50.549
425.765	245.920	58.385	51.185
428.261	245.742	58.429	51.370
430.807	245.332	56.973	50.961
435.105	246.210	55.065	50.311
440.688	245.287	57.533	50.059
442.657	243.911	57.183	49.195
447.326	244.555	56.025	49.386
452.246	244.680	53.751	48.539
455.966	244.940	52.229	47.966
461.883	244.577	50.016	46.366
463.519	244.957	50.678	45.063
464.229	244.140	51.835	44.706
461.206	243.143	55.846	47.978
456.080	241.030	60.737	51.176
453.780	239.324	61.091	53.734
451.495	239.520	62.445	52.862
446.857	239.007	64.753	52.851
448.022	239.088	62.582	54.025
450.382	242.566	59.166	50.946
454.614	244.043	55.356	48.384
456.807	244.316	53.531	47.262
458.207	245.292	55.794	45.050
459.672	246.320	57.305	44.254
460.068	246.741	59.799	46.243
458.706	246.390	60.939	48.753
458.726	245.843	57.685	51.503
458.373	246.163	56.341	50.884
458.364	246.229	53.414	50.220
457.973	245.799	53.820	50.743
457.267	244.699	54.532	52.501
456.762	243.518	54.777	52.831
456.444	242.780	54.256	52.883
456.211	242.462	51.915	52.549
456.184	241.879	49.808	53.045
453.519	241.794	53.491	51.824
450.360	242.180	58.844	50.486
445.902	242.431	63.050	51.365
446.828	242.033	60.727	49.921
444.082	241.910	63.500	52.135
445.670	241.611	60.174	55.604
445.470	241.940	56.136	54.775
445.196	242.622	50.529	55.223
444.288	243.009	50.995	55.843
437.805	244.555	62.918	53.002
437.851	245.058	63.188	52.378
439.862	245.747	60.087	49.022
440.834	244.894	55.728	50.854
440.913	245.032	53.988	50.129
438.201	246.291	59.041	50.759
435.099	246.336	63.699	51.770
435.202	247.127	60.935	52.766
436.849	246.866	57.488	52.126
440.153	245.419	53.483	54.171
440.123	243.668	53.021	55.905
433.908	241.244	64.908	53.653
431.794	241.216	70.506	55.211
437.318	238.468	63.747	49.986
440.441	236.014	60.848	50.742
441.124	235.521	63.447	49.625
439.101	233.594	67.136	54.234
443.516	232.109	62.459	56.803
446.320	231.633	59.886	57.152
447.099	231.159	59.957	54.803
448.046	229.241	63.558	52.748
448.972	228.658	64.101	50.239
449.633	228.144	64.497	49.009
449.902	228.503	65.075	47.945
449.939	228.610	64.602	47.713
447.493	229.564	64.106	48.048
442.037	230.104	63.608	50.988
434.535	231.365	67.887	54.248
418.210	233.386	71.398	55.000
413.148	232.720	73.137	57.602
404.233	233.700	72.814	58.082
399.445	232.394	70.024	58.384
398.225	233.586	64.828	55.512
392.231	233.912	66.895	54.450
385.977	233.276	62.791	54.676
384.882	228.233	65.016	57.692
383.749	227.288	65.391	56.886
384.516	230.303	60.059	55.441
390.850	235.126	61.729	52.402
406.564	241.099	48.826	53.747
394.718	240.353	64.929	55.910
398.195	243.232	68.382	54.368
406.760	243.909	60.840	52.106
414.283	242.475	59.387	50.447
425.223	238.432	57.595	49.574
431.093	233.796	61.609	49.199
437.150	228.179	64.819	49.738
441.959	222.564	68.773	51.067
445.580	220.527	71.647	50.604
449.172	220.827	70.592	48.314
452.666	221.456	68.701	47.623
452.833	225.340	65.667	43.066
452.523	226.873	58.405	43.477
447.813	229.092	56.708	46.313
444.054	235.048	55.002	47.677
433.898	238.530	60.972	49.704
427.783	240.236	63.074	51.309
423.589	241.239	62.523	53.301
420.071	243.584	62.486	51.981
416.829	245.126	61.570	51.987
415.838	245.314	60.420	51.802
415.333	246.016	59.203	50.693
414.120	246.040	60.660	50.610
414.088	246.270	61.007	50.087
414.481	245.701	61.325	50.400
413.850	246.087	63.376	49.720
415.914	244.099	61.583	52.882
417.807	243.725	60.962	54.526
419.123	244.442	60.922	54.304
421.860	245.781	61.878	52.702
424.046	245.643	61.638	52.599
426.224	245.615	61.152	52.592
428.268	244.918	60.395	52.826
430.158	244.594	59.570	53.526
431.504	244.537	59.693	53.687
432.474	245.321	61.772	52.418
434.405	245.866	63.880	50.287
437.524	245.089	61.299	49.715
439.494	244.857	60.524	48.712
441.303	243.813	61.508	48.380
442.917	241.896	61.294	50.374
445.175	241.792	58.014	48.303
446.221	242.428	57.943	44.402
448.108	241.306	56.297	48.069
449.237	239.715	60.431	50.633
445.593	241.115	65.683	50.887
452.169	241.058	61.447	46.932
455.103	241.286	59.989	44.787
457.407	242.015	58.132	43.433
459.687	243.479	57.811	41.607
460.526	244.082	57.282	40.801
461.467	244.544	57.329	41.376
460.733	244.918	58.145	43.428
454.916	244.602	62.922	48.190
458.455	244.069	57.673	48.969
455.880	244.628	55.473	49.976
452.625	244.910	54.883	48.618
450.630	246.172	51.450	47.020
446.269	246.132	53.011	46.151
438.527	247.057	55.535	45.148
432.926	246.931	56.980	48.519
428.109	246.430	60.242	47.621
424.641	248.084	60.470	48.300
423.298	247.288	58.474	47.231
420.454	249.198	57.613	45.204
416.085	249.623	59.074	46.034
411.468	249.755	60.252	47.651
412.024	249.001	56.948	48.781
409.693	250.985	58.343	47.168
408.769	250.317	56.645	47.448
407.609	251.141	56.421	47.133
407.092	250.372	55.594	48.422
407.094	250.423	55.735	47.373
408.137	250.526	55.170	46.517
409.369	251.578	54.369	45.517
410.747	251.976	53.967	45.879
411.276	252.372	54.100	45.329
411.716	252.358	54.804	46.224
413.069	252.278	52.199	46.907
416.085	253.911	49.393	45.550
417.979	251.883	48.620	48.927
419.635	250.299	46.625	50.949
420.943	249.136	47.406	50.212
422.180	247.073	49.102	47.849
421.977	245.818	55.466	43.696
422.442	243.539	55.452	43.621
424.242	243.272	54.496	42.336
426.813	242.273	52.933	42.796
429.392	241.029	51.338	43.169
433.709	239.859	51.711	43.004
437.849	238.385	52.719	43.239
443.345	237.928	54.134	42.402
450.174	236.840	54.369	41.690
457.826	235.029	55.333	41.049
469.028	232.165	55.783	41.822
479.315	229.054	56.398	42.423
487.415	226.664	58.936	43.350
498.648	223.946	52.389	44.757
508.137	221.800	55.117	44.037
518.762	219.543	52.664	44.265
526.617	216.582	59.042	43.275
531.067	214.001	61.868	41.865
533.616	210.988	63.632	43.793
537.054	209.208	62.056	46.693
538.767	208.325	60.934	50.749
537.383	215.114	62.196	50.674
532.478	220.042	62.311	53.112
531.177	228.552	66.930	58.688
516.804	229.184	71.012	53.497
500.055	237.047	62.063	51.071
484.360	241.309	66.306	48.637
468.743	246.104	62.276	46.462
448.601	247.371	71.480	47.951
429.471	246.920	69.634	50.609
411.977	244.942	70.975	51.819
400.293	242.147	68.379	53.711
389.999	238.883	67.796	55.288
385.982	237.529	63.230	54.023
383.093	235.159	61.652	54.224
381.788	233.618	61.004	55.260
381.229	232.678	61.606	55.370
384.089	233.997	63.796	53.596
389.921	235.808	65.776	55.919
400.848	237.152	65.323	53.800
417.112	238.185	62.571	54.480
435.449	240.233	58.461	52.026
451.361	238.118	54.440	51.016
474.071	235.347	69.490	49.009
488.455	228.728	70.676	50.688
517.044	220.704	66.087	46.923
535.627	213.356	72.649	44.905
556.753	205.762	62.408	49.025
552.088	237.786	65.704	52.853
545.241	232.219	58.659	51.789
539.025	227.747	61.108	50.353
532.040	224.755	67.241	49.986
532.105	223.166	70.062	52.392
535.014	223.840	69.354	55.730
536.985	227.369	69.971	59.224
579.349	206.240	62.593	52.599
561.141	213.024	63.513	50.410
538.005	221.521	76.433	48.355
525.249	226.718	63.576	48.369
504.370	232.213	66.503	44.292
463.929	232.093	63.743	47.167
440.434	229.234	67.450	49.580
426.466	225.455	61.488	52.293
415.384	221.227	57.654	51.703
406.970	216.696	53.874	50.742
402.254	214.435	49.368	48.865
400.978	212.978	48.543	47.203
399.868	214.124	45.361	46.423
400.225	218.760	44.198	42.149
402.544	225.044	44.049	38.472
416.212	236.435	41.824	35.912
418.837	238.760	45.600	47.656
424.783	241.478	55.678	49.176
442.678	244.331	56.977	46.327
466.555	244.502	68.843	44.972
493.965	236.875	68.812	49.807
516.140	228.992	67.592	50.918
540.460	214.057	63.164	55.515
563.273	209.510	58.144	46.812
502.967	237.148	70.355	50.187
487.717	230.744	65.592	50.848
478.824	226.098	68.020	50.054
474.346	223.585	65.909	50.700
475.310	223.308	65.764	51.978
480.056	225.332	69.111	53.899
491.407	229.940	73.167	54.362
519.837	248.082	65.453	39.017
527.545	216.315	56.658	42.130
505.281	220.282	62.497	43.302
471.187	223.223	60.594	43.250
438.257	223.632	74.753	41.415
411.576	219.671	64.529	45.131
393.312	214.560	66.202	48.204
385.316	208.774	60.367	49.784
381.977	204.078	57.089	49.034
380.484	200.851	55.092	49.526
379.103	200.317	56.459	49.090
382.551	200.577	56.367	50.046
384.501	203.650	60.411	50.399
390.825	207.719	54.896	52.195
398.815	212.960	61.541	50.157
405.534	217.952	58.470	48.368
414.604	221.602	54.342	47.891
426.488	225.401	46.665	46.505
434.578	229.353	43.230	44.223
443.144	229.037	43.368	48.810
449.666	229.143	40.735	47.286
452.593	228.554	52.790	47.053
456.899	226.823	50.064	44.548
459.337	225.473	51.327	42.678
460.348	224.888	52.066	40.169
461.093	224.090	52.346	39.517
460.937	223.667	53.139	39.966
460.703	223.167	54.855	42.204
460.364	222.202	54.075	44.751
460.089	223.188	51.912	49.135
458.828	227.463	49.043	49.517
457.507	233.127	48.773	49.113
455.056	237.195	50.727	51.975
452.439	242.961	51.344	52.997
450.475	248.894	52.678	51.668
449.099	254.253	51.768	46.085
448.270	255.879	51.943	44.244
445.816	256.446	53.230	43.978
445.533	251.800	55.209	47.348
446.676	247.803	53.446	47.672
446.691	243.002	50.091	47.262
447.579	238.474	48.079	44.457
447.461	234.969	49.181	43.738
447.635	233.583	50.022	40.374
447.554	230.686	50.585	38.578
445.752	229.043	50.173	36.836
443.882	229.103	49.127	35.882
441.970	228.214	44.744	37.324
439.437	236.034	48.847	37.487
436.142	242.163	47.946	37.969
438.635	258.579	40.487	40.779
430.116	286.227	45.072	34.088
424.214	306.858	50.577	35.904
419.426	319.371	58.109	43.991
420.601	323.089	62.865	49.678
422.378	314.320	64.284	59.222
427.269	281.104	68.540	62.065
431.687	255.288	64.756	70.741
453.343	201.503	46.071	68.307
449.071	178.725	48.145	77.365
476.093	237.233	58.843	56.294
472.818	223.423	56.318	59.547
468.519	211.673	56.924	60.056
465.325	216.605	52.837	62.908
468.947	228.808	56.745	61.422
459.032	210.858	49.902	55.502
454.439	216.688	52.142	58.118
444.971	231.630	46.286	59.633
442.036	237.427	42.395	58.955
437.650	243.846	41.123	57.610
415.519	253.674	62.376	54.246
371.951	184.090	71.388	74.990
360.930	199.830	80.725	71.980
360.514	216.127	77.754	70.020
357.237	229.053	80.893	74.547
353.962	236.763	82.076	72.275
347.773	240.375	77.326	69.896
342.927	246.868	76.754	77.042
331.688	254.761	78.080	73.884
325.109	251.790	83.865	78.422
323.116	239.971	97.161	84.630
319.772	232.871	106.801	80.599
326.776	223.244	106.340	84.265
328.982	215.364	108.711	81.974
328.124	205.348	110.427	87.742
332.124	194.367	106.509	93.276
338.019	183.304	100.678	98.202
337.284	180.496	103.164	95.180
343.531	178.410	94.957	85.791
345.663	179.210	97.059	76.151
346.828	183.250	98.380	71.560
344.985	184.455	103.061	66.754
341.530	182.812	104.899	67.965
331.944	190.833	112.646	66.162
333.324	192.040	110.058	71.394
335.557	193.056	105.231	74.905
335.501	195.855	103.872	76.264
334.860	200.170	103.462	75.332
326.447	204.681	107.297	77.630
321.050	207.248	108.698	80.216
319.465	209.963	103.698	80.738
321.518	216.577	91.567	70.809
314.536	220.542	100.677	71.286
315.179	225.212	92.506	64.732
307.375	228.183	93.687	61.347
294.590	226.624	99.335	68.116
293.033	226.861	94.273	59.794
287.296	225.589	92.481	63.838
281.176	222.249	94.967	68.663
271.965	218.081	100.665	64.928
273.531	214.682	91.464	67.799
271.229	211.433	93.236	69.120
267.698	204.026	96.333	77.706
271.258	200.523	93.521	81.590
277.061	198.884	89.626	77.905
280.308	200.106	93.857	71.297
289.730	205.427	90.151	60.488
292.147	205.316	89.135	58.842
297.676	205.381	86.053	60.209
304.368	205.033	82.121	63.423
308.090	208.295	85.623	59.403
313.738	210.451	86.954	56.343
317.334	211.112	89.309	55.357
329.189	211.917	83.781	55.592
333.573	211.992	86.912	54.799
341.905	209.502	84.703	57.108
346.381	205.039	83.843	57.602
351.089	201.455	82.721	54.889
359.870	197.840	74.287	50.462
359.930	194.046	79.150	46.713
363.102	190.815	78.460	43.186
363.931	190.218	76.841	38.861
366.285	189.466	77.604	35.071
367.581	189.866	75.824	32.553
366.510	191.898	74.796	33.456
363.841	194.580	68.470	37.694
359.569	202.224	67.895	43.586
355.131	208.403	62.880	56.399
339.487	232.613	65.719	56.081
331.972	250.806	69.830	61.795
333.182	263.990	69.892	58.717
345.781	256.642	77.385	57.382
381.542	238.454	62.221	63.919
404.837	215.736	57.225	56.302
425.704	195.082	45.124	58.964
431.983	202.044	47.159	54.948
443.173	210.386	61.774	49.071
458.305	207.538	52.100	45.408
452.770	213.350	52.565	44.353
460.508	216.520	51.575	44.499
467.258	221.801	47.005	42.064
446.062	219.288	59.104	43.292
397.642	252.565	49.177	45.088
380.110	283.338	51.302	48.632
371.575	306.862	50.277	53.264
347.500	313.601	73.047	61.607
360.583	296.639	85.667	66.443
379.745	254.638	85.460	83.356
418.773	222.770	64.342	80.745
433.470	190.189	57.117	78.356
434.608	193.253	50.716	66.554
445.071	191.764	57.244	61.551
442.090	188.720	60.944	71.499
429.985	192.359	64.699	68.498
460.418	163.129	68.677	59.424
462.984	169.525	51.876	72.262
435.222	234.217	75.025	43.074
407.265	261.327	80.869	54.939
385.203	276.792	86.553	64.086
376.581	287.433	78.365	64.892
366.954	284.961	71.537	65.515
373.967	273.187	60.856	67.620
378.415	253.576	55.846	62.505
383.426	236.120	54.228	53.223
387.324	219.390	50.834	44.267
388.257	213.561	52.398	42.315
385.737	210.287	55.004	42.537
382.939	209.682	56.915	44.564
375.658	213.721	62.665	44.174
372.313	220.015	62.240	47.446
371.795	227.970	60.421	52.933
372.981	235.035	58.285	60.883
364.051	244.110	65.475	60.423
365.910	250.819	65.916	58.159
367.857	255.115	70.837	57.730
366.584	254.810	77.560	60.579
380.563	254.360	63.054	62.417
388.759	258.696	51.058	56.737
399.772	256.771	34.838	55.692
404.584	256.342	28.723	51.629
407.108	252.056	24.739	52.384
405.940	250.321	29.519	51.372
394.224	240.186	48.729	55.832
388.128	234.193	63.670	64.345
380.516	233.847	74.596	63.430
379.421	233.555	77.496	62.981
379.466	235.555	76.533	58.033
378.889	234.582	75.905	59.374
375.363	234.970	78.307	61.226
372.565	235.025	80.996	64.817
371.115	235.916	80.363	61.641
369.771	236.361	80.778	62.453
368.135	237.304	82.015	63.717
366.537	241.406	80.675	60.490
363.864	239.516	84.032	64.064
361.897	241.376	80.838	63.798
359.787	239.485	79.469	65.881
360.209	240.065	75.838	65.208
359.828	237.781	73.886	63.386
360.181	235.412	71.207	58.033
357.887	230.743	72.864	55.032
357.418	229.361	71.268	53.908
355.124	229.001	71.805	53.641
351.365	235.004	74.693	53.674
351.329	244.127	73.819	56.165
357.853	254.786	69.989	61.706
355.382	261.061	81.045	68.587
366.545	259.664	89.565	71.691
388.433	245.593	89.178	79.084
415.910	232.165	74.139	61.993
435.018	221.319	63.975	51.560
445.011	191.340	67.594	59.703
445.260	180.483	79.357	61.236
445.299	178.719	83.452	58.833
448.307	180.677	81.430	52.643
450.141	186.561	76.229	49.328
460.272	200.637	61.159	46.663
431.038	210.155	77.492	51.914
418.266	215.996	75.085	67.821
408.046	229.524	67.488	69.415
401.672	239.973	60.319	73.665
393.377	258.109	42.146	66.028
384.160	268.184	44.396	61.091
379.445	266.703	47.692	62.179
367.481	267.929	60.493	59.405
363.850	269.114	65.029	55.529
363.391	267.157	64.328	53.752
363.948	264.681	62.825	51.163
368.357	261.015	65.215	47.582
371.099	257.788	63.218	47.148
372.377	254.444	61.141	48.303
372.787	250.902	64.322	48.395
372.578	248.826	64.904	49.983
371.142	246.406	67.404	51.337
373.000	245.841	67.566	52.449
374.996	242.286	70.741	56.226
381.464	238.432	64.931	60.639
388.854	230.196	69.490	61.805
395.758	220.082	69.249	60.135
405.538	210.959	64.571	50.324
410.633	201.112	59.693	46.350
419.121	189.185	59.779	33.821
424.226	180.722	62.246	31.602
426.228	181.959	64.006	27.306
428.873	182.464	62.961	25.981
429.936	184.809	58.103	28.991
433.647	189.835	51.496	38.560
439.239	195.778	40.752	46.783
442.764	210.584	35.590	46.254
438.315	223.632	39.991	45.511
431.731	228.679	47.899	54.451
427.120	236.341	51.231	56.306
422.677	241.462	55.023	55.070
420.138	243.829	55.606	53.276
412.474	243.605	59.607	54.182
409.909	242.956	59.692	54.932
405.730	241.896	62.476	53.924
401.938	241.322	65.007	52.645
399.229	241.071	64.467	51.571
397.293	240.752	64.390	51.820
396.164	240.835	64.231	52.458
396.790	243.040	64.251	53.309
397.439	245.244	64.296	52.179
404.119	247.722	61.393	49.700
410.088	249.261	58.975	46.583
419.029	246.965	52.866	48.454
428.806	245.213	47.472	46.713
433.943	241.602	46.446	46.885
435.978	235.330	53.147	48.596
439.502	226.217	61.659	52.212
439.957	222.685	62.942	51.792
437.413	220.570	68.232	51.359
434.374	222.072	66.443	46.608
430.124	222.411	58.907	44.967
422.924	223.277	56.570	42.324
415.420	222.698	52.113	42.088
405.551	223.869	46.651	44.238
397.373	223.972	47.582	48.894
388.938	224.200	47.568	51.631
383.476	224.223	47.715	52.238
377.638	225.145	51.199	52.673
373.491	226.779	53.793	52.671
370.844	228.607	56.685	52.367
369.960	229.190	57.599	52.851
369.830	230.153	58.346	52.189
370.678	230.856	57.971	52.549
372.425	232.150	56.440	51.860
376.653	232.511	52.417	49.261
381.509	231.739	48.214	51.260
387.261	231.978	46.729	51.062
389.956	231.194	51.693	50.117
394.149	230.720	54.074	50.105
397.778	229.217	55.318	49.975
400.822	227.803	58.105	49.828
403.273	227.021	59.223	50.013
406.269	225.483	60.472	51.326
410.795	224.644	59.295	51.356
413.957	224.153	58.019	52.086
417.737	223.612	56.765	52.301
420.786	222.689	55.760	52.627
425.166	222.311	54.312	52.219
430.619	221.719	53.422	52.489
434.422	221.394	52.214	51.960
438.335	221.163	50.839	51.799
443.232	221.196	46.778	51.524
443.549	219.889	48.445	49.095
449.444	222.387	47.765	49.128
452.181	220.064	46.477	53.020
452.203	220.158	49.223	51.596
453.015	219.771	49.117	52.906
454.207	219.591	49.559	53.635
456.700	219.439	48.148	53.163
458.262	218.841	47.492	54.514
458.747	218.122	47.812	54.331
460.065	218.455	50.523	52.656
459.973	218.038	53.173	51.415
459.645	218.291	55.948	50.497
459.019	218.359	57.068	51.645
458.525	221.151	57.576	53.358
458.258	219.858	58.393	55.650
458.431	221.809	58.403	54.283
459.012	223.321	59.298	55.903
459.642	227.322	63.278	53.894
461.088	228.837	62.871	52.336
462.576	230.584	62.135	50.043
464.085	231.456	62.001	48.898
465.980	232.814	61.938	49.287
468.452	233.069	59.990	50.411
469.958	232.638	59.483	51.264
470.232	232.936	62.015	50.893
470.045	231.282	62.432	53.629
471.744	229.198	58.178	54.418
472.491	227.608	54.228	57.660
473.771	227.294	44.977	57.353
471.940	225.301	44.489	56.525
466.871	223.859	46.931	56.477
462.146	223.149	52.872	56.705
456.976	222.987	59.399	56.491
456.083	224.913	64.135	54.527
456.949	227.616	61.627	48.033
457.666	228.194	60.722	48.830
459.093	229.255	59.959	49.198
458.847	232.024	60.174	49.788
454.180	235.201	64.123	52.106
456.194	236.736	60.280	54.617
454.636	238.627	60.115	52.980
453.635	237.991	58.850	55.069
453.193	239.776	57.075	54.493
452.561	238.218	57.841	53.557
451.395	235.088	68.563	54.433
451.703	235.788	63.320	51.639
453.425	231.332	67.228	54.197
455.037	226.441	63.604	57.367
455.847	223.344	63.064	59.523
457.226	220.677	63.480	59.184
458.127	219.381	66.890	56.568
459.797	217.481	68.056	55.391
461.381	215.635	67.294	53.444
461.931	215.531	68.597	47.636
462.749	215.669	69.924	43.463
465.416	214.792	69.720	40.271
467.155	213.551	70.214	38.470
468.469	211.531	69.874	38.224
469.480	208.296	68.103	41.648
470.250	205.694	69.232	48.936
468.221	205.612	68.017	52.680
467.082	204.795	66.510	55.288
467.121	204.869	64.896	56.740
464.974	204.950	64.931	58.613
463.817	205.308	65.907	59.674
461.523	205.224	68.684	61.132
460.258	206.440	70.373	62.545
456.748	206.773	72.285	63.211
453.291	207.520	74.606	62.797
448.847	206.730	77.267	63.638
449.957	212.342	72.478	57.662
447.339	212.181	72.561	56.220
442.818	209.736	75.226	60.085
442.498	208.164	75.333	62.629
442.686	208.493	72.236	62.042
442.215	208.082	71.518	61.441
439.015	207.348	71.822	61.655
433.857	207.093	76.648	62.170
432.708	209.980	75.439	58.906
427.550	206.942	80.262	64.185
428.134	206.815	77.979	65.187
426.655	206.331	78.195	65.999
424.431	207.150	79.234	66.284
423.503	205.859	79.646	67.241
422.086	206.690	80.886	66.954
422.238	206.224	80.195	66.940
421.785	206.372	80.540	66.525
421.366	206.584	81.527	68.290
422.501	207.023	80.547	67.999
422.770	209.082	80.344	65.204
423.732	208.928	79.384	66.518
423.301	209.385	80.438	66.328
423.406	210.006	80.566	65.978
423.664	210.336	80.311	65.775
423.301	210.137	80.719	66.064
423.244	209.914	80.729	66.327
423.568	209.981	80.163	66.147
423.517	209.488	80.141	66.709
423.406	209.772	79.804	66.555
424.050	211.022	79.205	64.923
424.642	210.453	78.745	65.978
425.217	210.926	78.096	65.993
426.417	211.426	77.496	65.787
427.426	211.015	76.246	67.273
428.616	211.006	75.796	67.025
430.110	211.786	74.566	66.635
431.433	211.619	75.204	66.510
432.471	211.934	74.560	66.369
433.433	212.586	74.426	65.884
435.162	213.436	73.426	65.715
436.279	213.047	72.519	65.999
437.243	212.841	72.146	66.189
438.540	213.462	71.093	65.482
439.754	212.975	70.497	65.881
440.790	212.767	70.413	65.959
442.560	212.837	69.790	65.676
444.894	213.010	68.979	64.349
448.717	212.731	64.845	62.491
455.645	214.633	55.192	61.264
461.209	212.154	44.528	64.350
467.303	213.485	36.493	62.689
470.964	212.574	33.365	59.831
473.943	212.642	34.107	53.374
479.177	212.316	37.591	48.584
481.602	208.439	41.565	52.282
479.625	201.965	51.350	56.848
477.548	199.617	58.957	57.459
475.748	191.140	69.314	61.701
475.843	183.067	71.209	69.804
476.239	184.202	74.036	67.011
476.988	184.097	74.105	67.249
475.815	185.800	75.843	63.130
476.685	186.169	74.826	61.100
476.328	187.326	75.814	58.943
476.453	187.355	75.746	58.712
476.554	187.163	75.796	58.608
476.532	185.674	76.403	59.381
473.571	185.234	71.876	59.769
472.045	184.328	72.345	59.313
469.920	182.675	72.593	59.819
467.318	181.939	73.810	59.422
464.302	181.549	73.569	59.444
464.720	179.819	69.198	60.462
464.089	179.888	70.405	58.831
463.677	178.769	70.374	59.452
463.663	176.910	70.442	60.161
462.731	176.464	69.131	62.244
462.276	178.280	69.746	60.715
463.335	177.322	65.837	61.185
465.087	176.680	59.328	62.462
465.945	173.373	56.219	64.841
465.968	176.697	53.776	61.083
467.006	178.090	54.425	59.525
481.994	177.774	69.357	58.794
480.104	173.543	69.369	61.630
477.328	171.663	69.874	64.208
478.445	174.156	67.572	61.558
476.773	174.793	69.040	61.549
476.475	176.092	69.758	61.575
475.563	178.077	70.250	59.922
474.836	178.357	69.372	59.036
474.382	178.591	68.444	58.315
474.807	180.561	67.233	56.269
473.745	181.624	67.774	54.876
472.757	180.929	68.458	55.244
472.466	180.687	68.525	55.675
472.013	180.478	68.853	55.491
471.449	179.835	69.451	55.426
470.491	179.343	72.083	55.563
469.929	180.058	74.237	55.220
471.711	180.155	73.469	55.340
471.142	180.369	75.577	54.810
470.115	180.245	78.991	55.817
468.616	178.292	84.020	59.189
470.967	176.930	87.940	62.313
468.948	176.286	91.365	64.144
460.806	171.942	96.703	69.263
467.120	170.915	97.916	70.845
471.228	169.248	94.260	70.522
467.112	166.449	91.117	72.049
475.857	168.198	90.378	71.130
476.787	160.902	83.510	77.271
476.446	154.217	75.714	78.282
480.147	153.697	73.412	77.125
481.539	150.286	68.512	76.395
483.584	149.636	67.555	75.686
485.236	147.858	66.679	72.357
490.992	143.595	67.371	67.258
485.274	142.954	77.630	63.947
484.372	140.448	87.104	62.459
488.501	137.232	81.330	63.396
483.977	136.294	84.296	61.073
479.122	132.280	91.577	60.205
493.701	130.250	83.713	63.132
490.874	128.238	82.493	60.294
496.176	127.997	81.563	60.931
500.744	123.753	75.065	62.764
502.436	123.221	74.677	60.858
516.147	121.298	68.513	61.737
517.192	119.051	67.463	62.214
517.329	113.795	67.454	66.221
516.570	113.071	67.376	64.869
520.133	115.146	64.823	61.468
517.789	110.916	67.054	64.222
519.963	112.364	64.543	60.953
519.798	109.026	64.648	64.000
521.103	107.678	61.253	64.452
521.980	105.426	60.743	64.884
520.809	104.837	62.882	64.078
524.623	105.229	61.345	62.360
519.778	111.397	64.499	56.711
524.039	110.576	59.058	60.604
523.030	108.469	59.306	60.651
516.340	113.192	61.248	57.452
516.587	98.796	66.185	63.556
513.449	91.098	73.306	68.400
512.759	90.037	71.251	70.337
509.609	98.808	70.182	68.722
503.540	114.168	74.940	61.500
502.897	112.530	73.742	65.426
501.479	131.678	68.621	64.818
503.563	128.303	67.517	67.730
500.800	137.430	64.570	67.292
505.033	154.563	54.980	64.559
497.380	165.019	57.475	58.912
498.264	171.502	57.838	56.789
496.472	179.582	63.658	59.452
500.171	176.423	59.327	62.477
495.581	187.184	67.447	59.461
490.207	193.817	72.158	58.126
497.658	199.169	69.307	59.680
496.628	192.037	71.229	55.387
494.353	192.441	75.420	60.806
501.362	183.532	67.928	58.937
489.274	193.980	80.243	53.588
500.440	180.679	68.876	60.192
499.157	187.640	72.385	55.956
502.140	178.178	69.003	61.214
498.210	185.249	74.585	54.507
504.542	176.189	65.409	60.251
502.219	181.266	72.721	53.300
506.552	176.719	66.800	57.265
509.955	176.233	65.364	53.443
509.217	170.870	63.864	58.008
509.988	172.833	60.394	55.115
513.807	167.955	59.116	51.559
510.849	170.302	63.246	49.561
508.763	177.612	69.392	49.591
515.996	163.387	62.832	38.907
519.973	171.718	64.281	30.486
518.880	175.420	64.551	28.124
524.685	171.471	60.359	38.649
519.815	171.832	66.911	44.212
530.159	156.805	57.353	42.666
524.388	159.200	62.270	43.150
529.453	162.343	59.968	40.920
523.227	165.556	65.707	40.592
519.969	165.322	68.382	46.147
520.192	165.038	69.418	53.006
518.983	168.041	70.684	54.066
513.480	171.718	76.602	56.230
516.570	177.092	70.879	62.711
514.681	180.554	72.927	55.886
513.003	182.389	75.262	57.915
513.612	181.804	74.219	62.439
513.670	183.110	73.924	64.903
512.273	186.201	74.332	64.015
510.243	187.805	74.451	65.437
509.514	190.700	73.505	64.306
507.561	194.048	75.042	61.831
505.424	196.100	75.761	61.073
503.887	196.339	76.372	60.616
501.574	196.728	75.974	60.071
499.692	196.039	75.679	60.734
497.692	197.008	75.353	59.882
496.937	196.455	75.558	59.678
495.251	196.254	76.466	59.205
495.369	195.488	75.284	58.205
496.195	199.685	71.235	53.728
497.294	198.852	67.790	54.878
497.112	199.223	66.638	54.056
496.935	198.032	66.440	54.803
493.786	197.703	68.764	55.320
485.125	197.638	75.207	55.290
487.773	192.399	71.821	57.802
488.663	192.546	73.591	57.211
488.984	192.327	75.710	57.651
488.331	192.205	73.609	55.174
485.997	190.685	73.001	55.848
486.575	189.197	71.507	55.245
485.707	188.962	71.544	53.511
484.677	188.502	71.399	52.392
484.993	187.891	69.623	52.120
484.135	187.498	70.445	51.250
485.223	187.433	68.924	50.160
485.318	187.292	68.843	49.419
486.134	186.979	67.551	48.770
487.122	187.299	65.684	47.050
487.327	187.006	64.876	45.641
487.495	186.147	64.744	45.950
486.826	184.965	64.807	45.351
487.519	181.277	64.471	48.193
484.061	180.132	67.538	48.679
489.621	174.805	64.301	52.055
488.861	169.622	63.321	56.113
487.710	167.167	64.411	57.726
488.068	163.929	60.629	60.261
488.503	160.977	62.934	60.932
491.460	159.375	63.592	59.069
491.898	158.832	61.219	58.748
491.949	159.482	62.218	58.223
493.086	158.878	61.231	57.590
492.919	160.747	56.177	56.571
492.082	162.325	52.135	55.135
493.011	162.325	56.572	54.700
493.051	162.760	57.835	54.526
492.425	163.007	59.197	54.319
492.524	162.479	60.008	53.871
489.199	160.891	61.308	54.380
490.854	157.955	59.882	55.107
491.510	157.800	58.627	55.426
489.705	155.364	60.215	55.742
489.378	154.507	59.738	54.990
488.534	154.738	62.022	53.744
485.432	151.001	65.307	57.284
486.100	148.774	66.905	57.116
485.813	147.706	67.620	57.476
485.474	146.278	69.072	57.452
486.422	145.447	70.515	57.111
488.871	144.602	70.866	56.436
491.534	141.565	70.505	58.525
494.196	141.725	70.954	57.832
496.323	140.444	72.653	57.914
497.837	138.367	72.698	59.388
499.821	137.320	73.426	60.078
501.912	137.321	73.415	59.784
503.842	138.343	73.591	58.386
504.756	138.686	73.249	57.089
507.310	138.296	73.033	56.340
510.353	138.111	69.560	54.820
514.298	136.509	66.713	54.309
517.410	132.909	68.916	56.452
514.395	128.949	72.664	59.958
518.468	124.507	73.772	64.922
514.769	121.899	74.855	69.597
515.904	118.888	75.457	70.401
514.526	126.324	66.088	62.279
517.293	153.433	64.531	35.334
521.661	164.528	64.777	22.548
525.931	168.309	61.088	18.385
522.340	168.768	66.854	17.354
524.199	126.659	66.020	59.212
525.266	125.290	70.904	60.837
525.694	124.352	71.670	61.620
525.358	123.962	71.796	62.383
525.136	123.664	72.574	62.546
525.404	122.590	72.540	62.728
526.000	120.179	71.889	65.262
526.319	118.658	71.663	65.796
526.028	116.969	71.763	66.481
525.213	114.931	71.982	66.870
524.094	112.614	71.939	67.471
523.358	110.824	71.116	67.289
522.435	108.580	71.526	67.320
521.056	107.015	72.578	67.317
519.863	105.271	73.737	67.165
517.207	103.966	76.436	67.706
513.984	103.065	80.341	66.007
503.623	104.416	98.228	63.332
493.725	103.999	114.565	63.766
475.808	104.221	90.255	62.624
469.096	103.046	80.331	63.518
460.841	103.226	81.891	62.597
451.665	105.217	74.970	59.931
445.041	106.033	74.486	59.673
444.066	105.806	76.230	58.990
446.312	106.224	73.976	59.134
447.702	106.500	74.467	58.608
449.168	106.812	74.584	58.526
451.382	106.804	73.318	59.380
453.190	107.656	72.508	58.992
451.484	107.889	75.014	59.468
454.449	107.809	71.745	60.325
454.935	108.097	71.340	60.253
453.938	109.077	75.191	59.922
456.075	108.488	77.871	63.474
574.104	111.592	62.589	67.254
575.331	108.901	69.855	71.881
572.776	109.101	78.122	73.123
572.739	112.167	78.788	73.004
576.630	113.808	67.610	74.361
575.969	118.903	75.472	69.672
570.350	123.506	80.484	66.541
473.455	124.250	75.948	66.934
473.426	129.645	74.203	61.073
475.608	132.669	71.823	57.610
476.676	134.981	70.429	55.463
477.358	136.221	68.708	54.958
478.515	137.063	67.373	54.296
479.325	138.124	64.477	53.392
479.788	137.105	66.317	53.501
480.731	137.049	65.065	54.157
483.905	136.546	65.067	53.046
485.075	136.879	62.158	51.169
487.365	137.388	60.607	48.965
489.242	137.584	61.254	48.161
490.355	138.163	62.296	45.918
490.029	139.794	62.476	43.911
491.241	139.992	63.309	44.260
489.988	140.005	66.044	47.591
489.436	140.344	67.966	51.579
491.433	136.982	66.994	55.700
489.900	142.288	66.260	54.274
487.670	143.280	68.220	56.439
488.650	146.698	67.557	58.325
487.893	148.677	63.175	57.572
486.294	152.783	67.738	54.994
482.429	153.243	69.341	55.641
479.165	153.134	70.982	55.970
477.418	153.657	67.562	55.961
476.185	154.286	69.626	54.593
475.761	154.693	67.592	54.799
476.954	155.105	64.348	55.566
476.436	152.749	63.172	55.393
470.474	149.055	66.635	54.727
469.683	145.572	65.497	56.112
466.941	143.396	66.125	55.753
466.624	142.920	66.139	54.733
463.503	138.820	69.881	57.422
464.654	135.001	61.440	58.985
465.064	133.280	67.609	58.082
463.575	133.912	65.640	55.816
473.005	129.890	60.185	57.204
466.536	125.547	64.555	57.213
468.126	118.614	65.128	59.389
466.468	114.341	64.539	59.912
472.747	112.266	60.094	58.045
468.912	111.576	63.546	55.750
548.936	108.216	63.202	57.894
550.812	105.861	64.220	55.707
550.237	102.534	64.305	55.441
548.713	100.312	65.872	55.460
547.108	99.441	67.664	54.395
547.691	99.426	66.322	53.654
546.576	98.054	64.263	53.514
546.419	98.299	63.222	53.558
548.138	98.638	64.728	53.270
550.419	95.536	64.127	55.401
553.163	97.129	61.324	56.951
549.624	99.141	64.000	59.811
551.563	105.334	65.900	60.125
547.709	111.846	66.062	64.188
549.611	121.384	63.074	61.661
546.140	134.011	67.212	63.246
547.828	159.987	68.153	61.011
548.908	174.506	67.082	63.804
547.422	194.332	67.813	67.264
548.486	222.135	65.576	62.304
542.675	245.097	69.769	65.103
545.344	265.961	67.370	61.585
547.693	285.158	64.933	57.748
547.972	303.227	64.091	55.860
549.697	311.989	61.299	55.524
554.054	317.049	60.114	53.752
551.520	320.162	62.606	53.090
552.824	320.218	63.595	53.879
549.254	319.862	69.192	53.640
553.793	318.792	62.498	54.096
553.957	311.506	63.500	57.333
554.490	306.027	65.560	55.985
555.104	303.062	66.964	56.415
553.447	299.182	71.324	56.820
552.430	298.361	73.538	56.110
552.599	297.392	74.768	55.998
552.768	296.437	74.998	56.455
554.408	294.761	73.164	55.375
554.830	293.120	72.528	54.917
555.544	288.938	70.894	57.816
554.584	286.545	70.833	58.055
554.651	280.061	69.802	60.463
554.736	277.414	69.407	59.929
555.869	271.966	67.114	60.559
557.816	268.130	64.337	62.343
557.887	261.446	59.911	59.514
561.455	258.687	57.540	59.669
564.170	254.046	56.371	57.339
562.202	248.509	55.686	56.101
559.963	244.046	57.149	51.379
563.377	239.479	50.757	53.289
563.273	237.199	49.101	50.961
562.489	236.884	46.961	50.326
558.559	238.956	50.868	46.866
559.482	239.125	53.049	47.091
484.712	222.030	48.115	51.821
467.241	223.014	65.973	49.905
466.749	224.663	64.911	48.800
464.731	222.228	68.340	49.988
463.964	225.130	62.367	47.609
467.964	223.370	66.353	49.114
471.674	221.701	59.734	54.849
474.577	221.128	55.897	54.735
476.206	220.306	54.488	54.654
476.382	221.066	54.010	54.431
474.152	221.372	58.396	54.269
469.938	222.680	66.394	52.862
469.078	224.181	66.584	52.852
468.810	225.386	65.158	51.186
470.135	226.033	63.418	51.161
469.620	227.112	64.149	50.060
470.425	228.701	60.929	49.017
468.737	229.276	61.557	49.042
465.167	229.319	63.173	50.610
461.998	232.484	62.705	49.046
454.483	239.766	62.902	43.849
449.406	238.023	58.627	47.020
443.095	238.744	58.265	45.991
422.795	235.271	63.032	48.472
412.316	230.671	66.142	52.653
400.347	227.039	69.272	54.010
389.075	222.770	68.901	56.122
383.924	218.967	65.917	55.934
376.601	215.488	64.618	56.198
374.935	212.372	64.187	56.533
375.041	211.333	61.675	56.323
372.724	210.725	62.860	55.260
371.134	209.994	65.403	55.547
370.592	209.683	70.686	56.879
375.624	212.076	66.853	55.323
384.544	212.803	65.760	55.999
392.399	214.325	60.072	51.237
403.060	214.630	51.459	48.819
411.117	212.646	51.143	51.423
415.761	210.960	50.355	52.302
420.495	208.512	47.082	54.464
429.629	204.286	44.503	57.528
434.065	203.157	43.642	57.580
434.694	205.932	45.197	56.819
435.807	206.374	47.819	55.805
437.089	208.289	51.954	53.486
437.309	213.627	57.617	50.186
440.201	210.986	63.704	53.467
441.984	209.097	63.781	56.112
444.525	209.144	66.186	55.889
447.692	209.987	67.457	54.786
458.090	212.552	59.387	53.565
464.126	210.982	54.673	54.451
473.036	211.716	55.099	54.179
475.669	194.247	63.748	60.943
469.942	186.877	68.383	54.175
491.741	206.987	60.417	57.709
503.100	207.644	66.071	55.287
512.250	205.252	64.566	57.443
429.702	178.411	63.696	50.959
428.235	178.822	62.510	49.516
424.160	179.706	63.986	50.018
424.177	180.467	65.106	51.205
426.567	181.996	65.055	51.392
432.582	183.505	64.713	52.057
442.110	184.795	64.366	53.108
453.181	185.753	71.669	52.813
473.352	188.035	81.321	54.221
495.301	188.227	72.942	55.399
501.451	234.017	73.797	47.485
487.151	229.990	74.145	50.594
469.542	231.024	75.845	53.021
443.588	228.255	72.200	56.177
425.396	225.479	74.552	57.774
416.251	220.519	69.296	59.239
405.808	214.427	68.871	59.310
400.895	210.454	68.512	56.637
400.892	206.297	65.841	55.007
400.887	204.130	64.293	54.196
402.055	202.908	63.859	53.616
404.634	201.909	64.803	53.596
409.273	202.784	66.768	53.335
415.741	204.247	70.100	54.038
421.755	205.266	68.604	54.570
404.188	207.791	53.044	56.440
416.487	215.920	73.267	58.404
507.378	214.231	76.780	62.054
500.709	210.179	82.424	65.104
483.814	203.574	86.114	67.769
482.166	203.022	87.665	66.296
484.643	209.111	69.243	63.289
478.430	222.052	64.543	65.413
473.959	235.148	55.040	56.693
469.980	237.442	51.727	53.797
468.003	236.593	47.596	54.068
466.582	233.526	41.152	54.837
464.509	230.678	35.624	55.295
461.836	228.552	34.300	54.410
460.832	230.255	27.916	49.275
456.416	233.771	30.802	46.155
448.898	234.681	37.160	45.865
443.016	234.024	44.341	48.335
438.737	232.354	50.872	52.113
436.635	230.495	56.303	55.173
435.478	230.973	61.788	54.716
440.318	227.004	70.600	60.542
446.186	227.009	69.756	59.768
456.490	225.073	63.929	57.332
463.853	224.485	64.994	54.614
476.665	221.657	56.926	57.209
489.544	214.153	51.309	64.654
493.696	211.072	51.196	65.562
498.769	209.604	53.830	64.020
498.877	207.069	58.271	63.961
500.651	205.719	64.324	64.177
497.674	204.987	73.618	59.081
498.594	204.931	73.796	55.864
497.359	204.973	75.331	53.949
496.745	205.728	76.373	50.775
496.099	202.556	74.589	55.430
494.868	202.864	72.408	58.898
493.636	202.415	70.427	59.493
489.445	203.558	70.909	61.832
489.229	207.041	71.536	62.933
487.605	210.406	65.935	57.203
485.139	213.747	66.548	57.672
480.263	219.668	68.785	56.537
479.359	220.688	66.448	57.332
477.063	221.268	67.383	57.355
475.140	222.046	67.510	57.386
474.974	223.060	67.192	55.023
473.322	223.455	67.767	55.775
473.246	224.180	67.688	55.713
473.515	224.506	66.651	55.863
475.262	224.223	65.717	56.631
476.841	222.455	64.503	57.823
477.552	221.849	66.453	56.464
480.041	222.932	67.069	55.679
482.978	224.036	71.028	55.094
485.458	224.052	68.463	55.346
490.264	225.989	63.910	51.374
492.824	226.599	63.511	54.341
495.153	225.889	69.514	56.386
495.427	225.022	72.513	57.611
497.014	222.952	72.701	60.173
501.943	223.225	65.759	61.630
503.481	222.365	63.845	62.011
504.719	222.365	63.789	62.161
503.736	222.009	67.648	61.276
503.227	221.054	69.427	62.750
501.941	222.421	71.872	60.834
501.324	223.081	75.253	59.918
500.404	222.682	75.664	60.570
502.955	222.420	70.199	59.925
501.219	222.875	66.171	59.343
499.392	224.360	71.055	57.548
498.821	226.766	70.589	53.894
499.974	226.982	67.730	54.113
499.479	227.461	65.826	54.382
499.166	228.802	62.079	54.635
498.197	228.525	60.302	56.903
497.340	229.325	60.170	58.030
498.001	228.093	58.679	59.663
498.224	228.029	56.759	59.594
497.409	229.792	56.414	57.605
496.405	229.929	58.672	57.875
494.501	230.568	63.431	57.109
493.391	231.245	65.279	56.140
492.290	234.833	66.517	52.846
495.081	234.393	65.243	54.026
494.842	233.497	68.338	54.885
496.012	233.269	69.265	55.953
499.922	231.481	67.293	56.320
504.867	232.061	65.519	54.232
508.791	232.049	65.920	53.634
511.495	232.507	68.491	52.597
522.843	229.333	64.257	54.864
532.866	229.603	60.734	53.365
540.706	228.464	58.730	53.860
546.222	224.791	61.513	54.917
551.252	223.144	67.338	53.289
554.727	221.795	72.430	52.999
559.439	220.905	74.240	52.784
566.685	221.407	61.169	56.508
568.886	223.842	59.249	51.603
572.372	218.573	70.478	55.491
575.084	216.543	68.885	60.096
577.660	215.888	67.422	61.279
578.356	215.565	67.091	61.666
579.031	216.883	67.006	61.295
574.944	216.884	70.397	59.910
574.696	219.539	67.948	56.914
575.995	222.159	62.790	54.065
575.098	222.653	61.335	51.607
567.448	224.403	64.677	51.202
564.919	224.774	65.758	52.611
563.423	225.047	62.016	54.460
562.406	224.667	61.101	54.750
560.948	223.848	60.844	55.651
556.705	224.089	63.490	55.244
551.669	224.196	66.928	52.761
551.412	224.084	64.379	51.835
551.149	224.885	63.054	50.698
549.068	224.967	63.447	49.769
548.542	222.404	61.159	54.020
548.578	223.532	58.760	53.778
549.870	223.944	53.484	54.360
550.717	223.161	50.861	57.235
552.187	222.727	48.578	58.226
552.628	223.366	47.759	58.514
553.002	223.914	45.549	59.857
551.239	230.971	45.143	54.617
550.044	235.114	44.945	49.904
549.551	237.455	43.697	48.978
549.078	239.190	43.105	48.049
548.281	240.209	45.263	46.211
548.192	240.256	46.573	46.897
548.080	240.231	45.668	47.901
547.527	240.294	45.751	47.494
546.668	240.231	46.856	47.925
545.130	240.204	48.838	49.239
543.247	239.056	49.234	48.917
541.533	240.001	48.622	48.349
540.007	239.044	48.999	49.329
537.362	237.266	49.833	53.608
536.761	236.225	49.431	53.148
535.947	235.713	47.363	52.317
534.610	233.368	48.429	52.239
535.506	231.090	45.521	52.881
536.738	228.571	42.675	52.520
537.250	226.068	40.758	53.134
539.727	222.217	39.524	51.432
540.221	218.257	43.446	52.240
540.488	214.871	48.999	51.507
539.571	213.023	55.206	50.179
539.649	212.778	60.400	47.049
542.398	211.484	63.734	46.674
547.026	211.095	63.663	45.702
549.893	210.156	62.142	46.074
550.063	209.905	61.235	48.130
550.364	209.351	60.182	51.111
542.289	213.034	67.914	50.836
540.629	212.174	68.285	55.635
536.821	212.887	68.910	55.623
534.751	214.051	64.151	54.279
532.659	214.710	64.835	54.737
529.688	214.794	63.678	53.927
523.130	216.032	68.614	52.075
523.459	215.678	67.971	50.665
522.812	214.677	67.700	50.132
522.371	214.309	69.209	48.636
523.148	213.972	69.994	48.052
523.596	214.003	69.463	49.189
524.889	214.369	68.627	51.789
529.828	217.861	63.613	48.905
527.742	217.400	61.955	55.233
527.871	224.106	58.957	52.630
522.711	226.372	60.869	53.933
519.324	229.952	61.256	53.624
513.494	232.041	61.879	54.506
501.025	233.030	69.547	55.281
493.455	232.414	71.193	54.734
490.388	232.287	72.223	55.596
490.569	232.120	67.282	55.596
487.375	230.267	69.240	55.172
486.420	228.491	70.251	53.151
485.476	227.852	71.077	52.710
484.547	227.573	72.420	52.728
486.881	227.391	71.126	54.689
488.851	226.043	67.483	58.888
491.301	227.782	69.681	54.169
494.619	229.886	65.223	55.728
498.930	232.121	61.743	53.949
498.596	231.414	61.184	55.626
493.505	230.400	66.742	56.984
491.006	230.460	70.065	58.006
488.044	229.987	70.743	57.359
487.176	229.485	71.112	58.148
486.145	230.033	71.414	58.211
485.757	229.258	71.154	59.537
486.119	229.029	72.213	58.183
486.731	226.666	73.473	59.059
489.376	226.065	72.044	59.431
495.801	225.683	65.023	57.161
501.367	225.673	60.445	54.835
503.059	224.123	59.693	53.411
505.423	222.158	61.626	56.776
506.929	223.686	67.422	56.461
505.996	223.183	70.911	56.459
505.565	222.481	73.219	58.708
507.397	222.898	71.216	59.228
511.375	225.211	69.391	56.569
513.755	226.552	71.340	55.368
516.433	226.142	70.952	58.235
518.643	227.155	70.397	57.742
523.870	228.339	67.406	57.367
533.428	232.075	60.359	55.062
538.174	234.169	58.520	52.930
540.033	233.520	61.884	52.480
541.055	233.250	64.315	52.822
543.550	233.670	65.476	52.503
547.968	232.485	63.982	52.562
548.664	229.269	65.498	58.238
552.830	227.283	65.057	58.616
554.965	225.507	65.314	60.116
557.300	224.483	67.885	56.928
562.246	222.864	69.827	54.074
563.112	222.595	70.235	51.485
563.479	221.664	72.196	50.908
564.589	220.772	70.684	52.243
563.310	221.477	68.890	53.265
558.887	221.507	64.737	56.339
554.235	222.484	69.065	56.550
551.292	224.787	63.912	54.421
544.901	227.337	64.524	52.932
541.665	228.397	63.010	55.160
536.273	232.191	60.554	52.675
531.384	233.841	61.736	52.913
525.217	235.646	62.653	52.834
521.860	237.466	59.212	52.907
520.260	239.917	55.094	52.945
519.589	243.317	49.865	50.026
516.565	248.317	42.949	46.997
518.258	250.982	39.548	43.538
515.533	255.260	36.868	41.739
518.810	255.553	32.093	44.365
519.420	258.394	31.297	41.491
521.320	256.100	29.062	43.638
525.758	251.433	22.062	48.774
525.495	246.656	22.404	54.354
526.140	244.849	22.825	53.203
527.459	245.445	22.187	50.965
527.375	246.000	22.188	50.248
527.079	245.698	21.086	49.036
526.651	247.708	19.745	47.859
526.181	249.500	19.411	47.731
524.865	248.415	20.067	49.342
524.889	248.268	19.537	49.915
524.789	248.146	20.275	49.458
525.250	256.073	19.698	44.035
526.468	256.022	20.042	42.936
529.269	251.022	20.560	45.475
531.631	246.667	22.790	48.404
534.690	234.904	24.940	55.628
534.590	225.154	29.646	42.820
538.429	217.702	34.129	37.588
544.317	208.787	34.832	37.378
549.733	198.225	36.992	37.971
556.653	183.014	39.847	37.118
550.159	164.959	45.515	41.537
549.853	148.714	52.428	43.399
550.849	132.950	57.425	50.382
547.417	121.468	67.523	48.933
545.488	111.459	71.815	52.677
543.352	104.817	78.088	55.475
545.048	102.193	79.017	58.232
545.362	103.198	78.323	62.267
546.824	106.425	81.672	64.117
552.074	110.313	79.329	69.090
555.517	115.360	77.756	63.879
561.352	120.538	73.281	60.427
566.863	124.429	68.709	58.623
569.756	126.464	71.812	57.321
569.895	125.247	74.572	59.121
571.428	120.981	77.236	61.369
572.877	116.060	81.540	68.582
576.879	109.737	86.118	70.575
582.114	104.193	88.678	68.060
590.018	100.979	91.241	71.106
599.894	101.506	89.676	67.132
614.764	105.060	85.882	63.039
630.647	110.315	74.943	61.825
644.624	116.704	72.842	67.450
659.037	128.347	68.399	74.800
653.373	143.093	68.171	73.164
661.252	162.784	82.031	79.448
681.122	164.255	71.351	82.085
663.347	189.919	75.871	90.476
653.408	213.591	77.278	79.114
625.950	228.663	101.689	62.188
648.353	238.193	55.966	85.143
