444.000	331.000	18.000	32.000
443.533	331.113	18.416	32.604
443.483	331.021	18.493	32.612
443.414	331.099	18.423	32.441
443.370	331.077	18.520	32.479
443.446	331.167	18.358	32.328
443.593	331.347	18.320	32.291
443.539	331.230	18.300	32.377
443.561	331.218	18.206	32.482
443.550	331.122	18.094	32.404
443.151	331.401	18.493	32.614
443.217	331.245	18.567	32.635
443.228	331.211	18.612	32.684
443.228	331.245	18.612	32.604
443.249	331.189	18.647	32.706
443.260	331.155	18.808	32.833
443.199	331.166	18.719	32.526
442.903	331.333	19.366	32.438
442.828	331.288	19.427	32.409
442.378	331.132	19.877	32.525
442.124	330.960	20.106	32.841
442.080	330.916	19.871	32.815
441.804	330.429	20.237	33.415
441.541	330.229	20.419	33.481
441.472	329.874	20.289	33.898
441.051	329.573	20.416	34.129
440.579	329.437	20.611	34.033
440.739	329.096	20.530	34.512
440.797	328.384	20.397	35.205
440.777	328.081	20.502	35.646
440.409	328.384	20.546	34.913
440.469	327.809	20.566	35.369
440.543	327.739	20.390	35.409
440.813	327.221	20.417	35.876
441.043	326.723	20.013	36.388
441.338	326.496	19.502	36.632
441.746	326.083	19.079	37.337
441.950	324.337	19.005	39.101
442.095	324.308	19.037	39.062
442.274	323.819	19.528	39.578
442.262	322.061	19.833	41.680
442.248	321.577	20.652	41.916
442.610	321.388	20.922	41.751
442.774	320.141	21.596	43.350
442.766	319.953	23.485	43.572
443.191	319.148	25.972	43.963
443.442	319.309	26.673	44.165
443.602	317.823	27.710	45.693
444.221	317.803	27.658	45.853
444.284	317.881	28.389	45.536
445.021	317.273	28.022	46.676
446.507	316.819	27.599	46.683
448.946	317.017	26.609	46.732
451.823	316.377	24.833	47.081
453.507	316.109	24.328	47.336
454.721	315.812	24.256	47.589
455.491	316.289	25.158	47.236
456.691	315.916	25.543	47.347
457.311	316.348	26.462	47.153
458.252	316.174	26.880	47.316
459.711	316.713	27.316	46.921
461.018	316.716	26.668	46.901
462.184	316.802	26.506	47.002
463.271	316.627	26.609	46.775
464.711	317.017	26.282	46.149
466.475	317.198	25.114	46.209
467.645	316.977	25.616	46.153
469.294	316.818	25.502	46.095
470.279	316.334	26.303	46.815
471.671	316.498	27.165	46.960
472.960	316.576	28.411	46.829
474.582	316.441	29.142	46.869
475.390	316.915	29.967	46.457
476.542	317.113	30.415	46.012
477.883	317.144	29.591	45.736
479.582	316.849	28.792	46.755
481.088	316.482	28.236	46.718
484.097	316.553	26.508	46.321
486.423	316.577	25.537	45.923
487.908	316.590	25.836	45.845
490.090	316.499	25.315	46.357
491.212	315.662	25.068	47.108
492.912	315.997	25.288	46.561
493.818	316.506	25.550	46.005
495.071	316.353	26.266	46.298
496.344	316.189	25.478	46.742
497.644	316.376	25.866	46.323
498.884	316.632	25.752	45.579
500.666	316.699	25.235	45.327
502.496	316.758	25.432	45.383
504.074	316.683	25.497	45.214
505.268	316.528	25.889	45.138
506.753	316.632	25.767	44.917
508.268	316.183	25.716	45.381
509.098	316.299	26.442	45.527
510.616	316.144	28.694	45.675
511.752	316.038	30.255	45.730
513.019	316.037	30.958	45.919
513.909	316.268	29.185	45.567
514.808	316.463	29.515	45.764
516.865	315.637	28.233	46.428
519.459	315.408	27.002	46.620
521.537	315.466	26.023	46.516
523.797	315.286	24.603	46.538
525.211	315.432	24.146	46.306
526.899	315.202	24.057	46.709
528.194	314.635	24.265	47.398
529.552	315.071	24.315	46.728
530.853	315.432	24.293	46.635
531.714	315.698	25.380	46.184
533.262	316.352	25.543	46.027
534.198	316.583	25.173	45.731
535.977	316.511	24.682	45.622
537.639	316.186	24.408	45.799
539.280	316.677	24.277	45.267
540.969	316.539	24.205	45.148
542.428	316.354	24.530	45.397
543.864	316.307	25.459	45.486
545.739	316.697	26.971	45.509
546.684	316.464	29.567	45.905
547.386	315.977	31.034	46.373
547.688	316.376	31.539	46.162
547.986	316.700	31.762	45.855
548.853	316.847	31.297	45.706
549.150	316.806	32.318	46.081
552.300	316.422	29.695	46.870
555.694	316.767	27.302	46.335
559.280	316.944	25.042	45.864
560.778	317.015	24.529	45.438
562.311	317.248	24.155	45.059
564.636	317.382	22.536	44.117
566.162	317.282	22.495	44.343
567.316	317.422	22.849	44.514
568.078	317.528	24.032	44.913
569.263	317.307	24.206	45.161
570.263	317.784	24.351	44.839
570.990	317.768	25.123	44.857
571.837	317.755	25.440	44.809
573.050	317.739	25.166	44.803
574.089	318.101	25.344	44.395
575.149	317.936	25.763	44.433
575.937	318.033	26.506	44.321
576.909	317.985	27.068	44.024
578.107	318.253	27.525	43.609
579.366	318.329	28.261	43.519
580.617	317.537	29.045	44.655
581.449	318.064	29.905	44.353
581.907	317.759	30.360	44.963
582.351	318.150	30.840	44.719
583.405	317.967	30.505	45.011
584.723	317.657	30.186	45.913
586.396	317.761	29.490	45.691
588.383	317.657	28.646	46.180
590.243	317.359	27.796	46.186
591.815	317.241	27.040	46.397
592.328	317.205	27.462	46.738
592.505	317.991	28.652	46.002
593.970	317.965	28.593	45.974
594.480	318.293	29.015	45.823
595.415	318.463	29.234	45.653
596.065	318.766	29.843	45.649
597.083	318.813	29.653	45.713
598.365	318.843	28.925	45.994
599.166	318.408	28.590	46.444
599.939	318.843	28.432	46.060
601.062	318.230	28.094	46.359
602.434	318.383	27.907	46.811
603.272	318.359	28.205	47.045
603.987	318.843	29.008	46.669
604.626	318.579	30.117	47.138
605.377	318.567	30.849	47.433
605.879	318.782	31.162	46.885
607.038	319.198	30.502	46.289
607.676	319.068	30.267	46.326
608.066	319.575	30.084	45.594
608.583	320.105	29.504	45.051
608.946	320.216	29.549	44.747
609.437	320.832	29.320	43.998
609.988	320.914	29.098	44.117
610.265	321.272	28.849	43.844
610.248	322.026	28.532	43.409
610.363	322.698	28.534	42.977
611.087	323.088	28.087	42.598
611.109	323.322	27.816	42.582
611.648	323.912	27.225	42.027
611.672	324.278	27.191	41.663
611.424	324.768	27.472	41.014
611.195	325.202	27.610	40.620
611.816	325.577	26.835	40.554
611.993	326.115	26.579	40.071
612.783	326.672	25.808	38.834
612.704	326.992	25.764	38.303
612.667	327.276	25.738	38.057
612.682	327.741	25.659	37.336
612.625	327.981	25.659	37.078
612.781	328.477	25.535	36.419
612.758	328.809	25.614	36.065
612.870	328.696	25.420	36.161
612.763	328.771	25.579	35.999
612.835	328.746	25.585	36.041
612.936	328.820	25.330	36.194
612.864	328.894	25.433	36.121
612.735	328.820	25.655	36.212
612.687	328.771	26.184	36.174
612.652	328.727	26.128	36.418
612.359	328.652	26.090	36.617
612.439	328.577	26.122	36.657
612.696	328.776	26.014	36.440
612.579	328.948	26.314	36.428
612.768	328.924	26.206	36.256
612.812	328.776	26.564	36.440
613.017	328.875	26.677	36.359
613.323	329.006	26.590	36.391
613.539	329.057	26.425	36.376
613.710	329.383	26.379	36.084
613.869	329.494	26.626	35.883
614.027	329.736	26.503	35.676
613.938	329.833	27.037	35.457
613.956	329.899	26.998	35.387
614.200	329.976	26.931	35.314
614.359	329.713	26.598	35.612
614.388	329.809	26.450	35.463
614.573	329.928	26.540	35.484
614.545	330.070	26.603	35.290
614.474	330.023	26.710	35.425
614.545	329.928	26.309	35.397
614.691	330.047	25.997	35.560
614.604	330.090	26.180	35.506
614.561	330.163	26.272	35.398
614.575	330.211	26.339	35.263
614.978	330.826	26.423	34.459
614.922	330.757	26.404	34.538
614.922	330.733	26.437	34.646
614.864	330.662	26.430	34.764
614.921	330.733	26.566	34.621
614.937	330.545	26.341	34.964
614.907	330.663	26.598	34.708
614.936	330.710	26.534	34.765
614.907	330.639	26.667	34.818
614.950	330.639	26.694	34.870
614.964	330.569	27.074	34.975
614.967	330.640	26.870	34.754
614.921	330.686	27.044	34.788
614.996	330.521	26.875	34.918
615.055	330.498	26.783	34.977
615.099	330.569	26.688	34.819
615.106	330.639	26.841	34.835
615.128	330.521	27.074	34.970
615.171	330.431	26.907	35.133
615.215	330.502	26.777	35.114
615.026	330.616	26.863	34.928
615.128	330.639	26.847	34.887
615.113	330.686	26.896	34.875
615.200	330.639	26.757	34.921
615.215	330.663	26.794	34.898
614.952	330.545	26.988	34.964
615.040	330.592	26.831	34.882
615.011	330.569	26.981	34.906
615.084	330.569	26.925	34.975
615.055	330.780	26.954	34.643
615.040	330.733	26.952	34.759
615.099	330.686	26.807	34.754
615.099	330.686	26.807	34.857
615.186	330.616	26.669	34.910
615.200	330.639	26.723	34.921
615.258	330.474	26.665	35.156
615.215	330.450	26.691	35.180
615.069	330.663	27.149	34.829
615.099	330.616	27.156	34.914
615.011	330.519	27.190	35.028
614.835	330.478	27.473	35.348
614.914	330.572	27.453	35.219
614.914	330.502	27.400	35.272
614.973	330.478	27.270	35.331
614.986	330.383	27.137	35.531
614.854	330.312	27.406	35.462
614.854	330.335	27.371	35.473
614.795	330.288	27.518	35.539
614.899	330.354	27.450	35.396
614.765	330.383	27.673	35.408
615.017	330.428	27.548	35.374
614.958	330.453	27.643	35.350
614.914	330.501	27.687	35.284
614.958	330.477	27.716	35.430
614.943	330.404	27.676	35.555
615.061	330.272	27.558	35.624
615.032	330.344	27.643	35.588
615.082	330.224	27.540	35.690
615.052	330.224	27.728	35.832
615.067	330.224	27.731	35.850
614.992	330.200	27.736	35.838
615.022	330.176	27.636	35.898
615.007	330.224	27.616	35.796
615.037	330.272	27.603	35.606
615.022	330.272	27.583	35.659
615.112	330.272	27.424	35.677
615.134	330.354	27.503	35.465
615.076	330.330	27.526	35.473
615.061	330.354	27.540	35.448
615.090	330.379	27.474	35.372
615.016	330.240	27.497	35.640
615.017	330.272	27.584	35.677
615.022	330.176	27.549	35.826
615.067	330.344	27.469	35.552
615.017	330.453	27.602	35.315
614.840	330.407	27.853	35.402
614.987	330.296	27.632	35.671
615.082	330.296	27.645	35.671
615.112	330.224	27.563	35.707
615.067	330.200	27.625	35.714
615.142	330.248	27.446	35.683
615.119	330.391	27.573	35.522
615.105	330.404	27.680	35.486
615.037	330.231	27.655	35.676
615.112	330.248	27.545	35.683
615.202	330.367	27.334	35.546
615.151	330.454	27.414	35.425
614.866	330.713	28.052	35.078
614.987	330.887	27.984	34.830
615.061	330.719	28.093	35.153
615.082	330.623	27.733	35.214
615.016	330.550	27.759	35.339
615.134	330.743	27.706	34.973
615.061	330.713	27.821	35.078
615.166	330.623	27.609	35.318
615.076	330.526	27.717	35.381
615.097	330.501	27.701	35.422
615.097	330.526	27.683	35.433
615.127	330.623	27.688	35.266
615.121	330.574	27.761	35.350
615.037	330.671	27.885	35.080
615.106	330.767	27.740	35.035
615.151	330.671	27.695	35.131
615.046	330.647	27.765	35.208
614.914	330.719	27.927	35.014
615.002	330.695	27.727	35.125
615.091	330.526	27.666	35.433
614.943	330.647	27.768	35.225
614.958	330.743	27.735	35.129
615.002	330.743	27.654	35.077
615.121	330.643	27.513	35.236
615.061	330.549	27.767	35.348
615.022	330.501	27.918	35.457
615.187	330.580	27.558	35.387
615.403	330.550	27.337	35.426
615.285	330.643	27.263	35.183
615.211	330.643	27.354	35.148
615.255	330.572	27.240	35.219
615.255	330.619	27.345	35.242
615.151	330.666	27.449	35.125
615.166	331.013	27.313	34.849
615.287	331.070	27.346	34.941
615.344	331.047	27.431	34.930
615.329	330.976	27.428	35.053
615.374	330.976	27.349	35.087
615.359	331.023	27.223	34.953
615.285	331.047	27.687	34.913
615.344	331.123	27.538	34.906
615.285	330.999	27.597	34.977
615.270	331.146	27.666	34.865
615.314	330.924	27.586	35.003
615.285	331.127	27.438	34.664
615.300	331.164	27.458	34.760
615.374	331.141	27.244	34.836
615.344	331.396	27.574	34.580
615.493	331.141	27.482	34.870
615.462	331.211	27.729	34.766
615.462	331.264	27.747	34.630
615.388	331.350	27.729	34.574
615.403	331.234	27.732	34.725
615.344	331.359	27.810	34.432
615.282	331.234	27.454	34.725
615.211	331.304	27.583	34.603
614.866	331.187	28.034	34.703
614.926	331.309	27.761	34.615
614.638	331.304	27.402	34.742
614.448	331.396	27.842	34.597
614.314	331.407	27.987	34.385
614.166	331.442	27.915	34.413
614.225	331.442	27.374	34.413
614.253	331.557	27.339	34.368
614.149	331.379	27.286	34.701
614.055	331.488	27.217	34.384
613.896	331.498	27.085	34.565
613.849	331.545	26.971	34.248
613.673	331.895	26.901	34.058
613.584	331.895	26.825	34.076
613.489	331.803	26.662	34.270
613.313	331.569	26.600	34.387
612.805	331.715	26.835	34.084
612.835	331.441	26.773	34.341
612.226	331.256	27.204	34.492
612.030	330.713	26.626	35.022
611.778	330.307	27.518	35.167
611.661	329.899	26.867	35.491
612.056	329.149	26.034	36.019
612.301	328.409	25.350	36.689
611.950	327.948	25.916	36.944
611.999	327.090	25.733	37.860
612.053	326.033	25.499	38.966
611.894	325.892	25.966	38.866
612.010	325.023	25.866	39.658
612.532	324.409	25.238	40.107
612.785	323.896	25.079	40.676
612.966	323.225	25.043	41.176
613.264	322.781	24.957	41.829
613.642	322.443	24.538	41.814
613.820	322.119	24.383	42.392
613.878	321.116	24.451	43.355
614.088	320.682	24.715	43.639
614.211	320.202	24.880	44.415
614.468	319.375	25.043	45.146
614.851	319.217	24.983	45.304
615.120	318.801	24.781	45.893
615.466	318.618	24.993	46.006
615.979	318.495	24.525	46.134
616.521	318.392	24.695	45.955
616.413	318.312	25.149	45.894
617.021	318.226	24.585	46.036
617.765	318.203	24.151	45.982
618.603	317.864	23.327	46.228
618.670	317.963	23.672	46.067
619.128	317.724	23.458	46.305
619.286	317.644	23.630	46.256
619.380	317.708	23.479	46.214
619.539	317.852	23.546	46.006
619.836	317.899	23.392	45.980
620.003	317.612	23.328	46.203
620.515	317.628	22.900	46.337
620.829	317.830	22.642	46.422
621.858	317.978	21.943	45.871
622.093	318.030	21.971	45.826
622.252	318.109	22.025	45.769
622.466	317.998	22.246	45.625
622.817	317.824	22.261	45.652
623.068	317.723	22.236	45.801
623.407	317.676	22.360	45.976
623.661	317.645	22.555	45.964
623.819	317.645	22.844	46.093
624.263	317.402	22.733	46.235
624.625	317.168	22.846	46.541
624.861	317.327	23.196	46.081
625.403	317.501	22.706	45.715
625.841	317.234	22.736	45.803
626.347	317.385	22.678	45.635
626.323	316.831	23.114	45.870
626.870	317.120	22.848	45.538
627.010	316.931	22.742	45.516
627.599	316.801	22.533	45.680
627.782	316.754	22.489	45.812
627.703	316.629	22.604	46.173
628.179	316.772	22.456	45.929
628.090	316.754	22.316	46.027
628.412	316.708	22.179	46.289
628.587	316.756	21.925	46.179
628.841	316.776	21.992	46.143
628.794	316.786	22.230	46.103
628.806	316.925	22.272	46.028
628.733	316.786	22.454	46.017
628.664	316.978	22.589	45.238
628.527	316.792	22.723	45.288
628.501	316.817	22.911	45.283
628.575	316.972	22.779	44.750
628.474	316.824	22.965	44.574
628.311	316.759	22.994	44.613
628.116	316.281	23.405	44.903
628.387	316.080	22.995	45.231
628.259	316.172	23.039	45.182
628.349	316.202	22.949	45.088
628.017	316.263	23.287	44.815
628.010	316.415	23.150	44.453
627.856	316.405	23.243	44.448
627.981	316.281	22.759	44.779
627.433	316.025	23.314	45.079
626.927	315.894	23.819	45.226
626.106	315.643	24.281	45.680
625.997	315.266	23.979	46.147
625.694	315.457	24.448	45.957
625.627	315.393	24.024	46.042
625.026	315.346	24.029	46.089
624.368	315.298	24.040	46.008
623.541	315.504	24.241	45.674
623.271	315.661	24.319	45.431
622.773	316.116	24.303	44.635
621.994	315.706	24.098	44.711
621.863	315.693	24.041	44.670
621.433	315.800	23.774	44.270
621.039	315.529	23.374	44.263
620.786	315.544	23.465	44.350
620.486	315.451	22.946	44.237
619.842	315.422	23.394	44.244
618.792	315.483	24.031	44.142
618.386	315.581	23.996	44.016
617.711	315.611	24.258	44.111
617.380	315.626	24.337	44.096
616.764	315.491	24.306	44.525
616.288	315.431	24.573	44.451
615.430	315.154	25.060	44.913
614.881	315.232	25.252	44.881
614.734	315.399	24.900	44.928
613.806	315.616	24.949	44.964
613.347	315.416	24.992	45.037
612.968	315.401	25.256	44.905
611.923	315.475	25.527	44.896
611.377	315.451	25.711	44.705
610.905	315.389	25.315	44.746
610.166	315.460	25.326	44.505
609.351	315.677	25.528	43.939
608.731	315.593	25.246	44.032
607.933	315.503	25.334	44.311
607.595	315.860	25.106	42.980
607.023	315.745	24.861	42.908
606.706	315.756	24.823	42.974
605.756	315.814	25.256	43.080
605.218	315.894	25.155	42.881
605.167	315.953	24.726	42.822
604.964	315.987	24.792	42.784
604.095	316.342	25.725	42.326
603.561	316.158	25.537	42.233
603.037	316.229	25.910	42.255
602.470	316.041	26.165	42.673
601.948	316.271	26.544	42.794
601.518	316.530	26.724	42.494
601.296	316.701	26.701	42.323
600.887	317.121	26.862	41.964
600.455	317.602	26.740	41.604
600.072	317.633	27.033	41.558
599.854	318.122	26.981	41.145
599.596	318.496	26.866	40.755
599.410	319.142	26.317	40.024
598.987	320.239	25.632	38.553
598.567	320.587	25.583	38.227
598.437	320.792	25.419	38.060
598.281	321.310	25.349	37.560
598.099	321.948	25.227	37.081
597.687	322.198	24.890	36.639
597.471	322.686	24.934	36.194
597.486	322.974	25.057	35.942
597.646	324.149	24.200	34.714
597.262	324.658	24.721	34.334
597.476	325.107	24.548	34.072
597.971	325.322	23.430	34.090
597.978	325.381	23.468	34.071
597.858	325.869	23.446	33.566
597.803	325.867	23.614	33.685
597.658	326.701	24.011	32.785
597.598	326.887	24.178	32.739
597.829	326.890	23.649	32.896
597.790	327.380	23.844	32.262
598.095	327.486	23.339	32.192
597.716	326.895	23.672	32.982
597.751	327.651	23.711	31.991
597.621	327.765	23.799	31.912
597.737	327.264	23.399	32.692
597.763	327.743	23.656	31.918
597.206	326.883	24.370	32.978
597.463	327.465	24.167	32.258
597.464	327.507	24.078	32.154
597.490	327.679	24.238	31.934
597.763	327.765	23.794	31.992
597.698	326.930	23.631	32.963
598.174	327.506	23.612	32.153
597.597	327.615	24.354	32.078
598.335	327.445	23.715	32.290
598.372	328.121	24.047	31.779
598.411	327.779	24.069	32.397
598.306	327.974	24.251	32.011
598.555	327.996	23.879	32.037
598.789	327.691	23.692	32.628
598.994	327.909	23.579	32.283
598.968	327.624	23.604	32.584
598.802	328.018	23.833	31.921
598.637	327.801	24.013	32.407
598.685	328.039	23.951	32.026
599.421	327.867	23.213	32.373
599.583	327.569	23.082	32.674
600.056	327.735	22.818	32.568
600.532	327.601	22.170	32.576
600.171	327.768	22.607	32.206
599.747	327.894	23.069	32.189
600.654	327.521	21.624	32.373
599.959	327.788	22.385	31.912
600.253	327.788	22.451	31.867
600.765	327.671	21.625	31.914
601.027	327.767	21.055	31.896
601.393	328.045	21.237	31.568
601.567	327.852	20.966	31.563
602.200	327.867	20.146	31.653
602.160	328.006	20.267	31.885
602.529	327.618	19.666	32.330
603.237	327.702	19.534	32.511
602.723	327.292	19.776	32.766
602.396	327.588	20.112	32.794
602.523	327.385	20.268	33.455
602.292	326.780	20.442	34.346
602.238	326.735	20.581	33.975
601.771	326.401	20.804	33.721
602.168	326.696	20.702	34.551
602.010	325.958	20.424	37.163
601.971	325.381	20.137	39.025
603.232	325.505	20.111	39.372
605.409	325.463	19.917	40.370
607.182	326.494	19.159	38.700
605.737	327.361	19.694	37.034
606.027	326.770	21.001	37.062
607.346	327.331	21.041	36.621
607.038	327.043	21.869	37.491
606.262	326.371	22.000	37.561
609.369	325.517	22.002	37.973
606.532	327.559	21.765	37.031
607.981	326.589	23.401	36.293
611.452	326.806	22.419	37.671
611.927	327.801	20.299	38.319
607.337	327.480	21.494	37.702
608.107	327.277	22.328	38.525
609.382	327.804	23.234	37.452
610.665	326.605	22.210	40.190
612.704	327.126	21.218	44.559
613.526	327.307	20.662	44.312
615.601	327.830	19.102	49.949
616.612	327.021	19.197	54.090
612.793	328.403	21.845	55.624
618.082	331.240	19.289	55.211
617.899	330.946	20.076	56.584
618.513	332.822	20.015	55.147
620.137	329.993	19.296	54.451
622.775	329.163	18.676	55.338
625.418	328.565	17.577	52.739
625.918	329.479	18.186	43.458
626.947	329.709	18.686	39.271
626.538	329.636	20.691	39.356
626.662	329.670	21.609	40.211
627.925	331.091	21.544	38.279
630.027	331.806	20.412	35.017
629.658	330.410	20.623	35.232
629.192	329.299	21.508	37.682
628.350	328.961	22.301	38.255
628.607	329.997	22.103	37.996
632.780	331.137	21.539	37.501
630.389	329.760	22.289	39.202
630.714	330.345	22.208	42.027
630.373	330.101	21.546	41.495
632.558	330.352	18.490	40.066
629.247	329.591	18.650	45.269
620.054	331.374	20.580	57.096
608.681	333.441	24.084	56.456
598.940	336.546	24.136	53.940
590.798	337.335	25.340	53.912
586.656	334.621	25.217	56.441
586.931	330.540	24.175	57.038
586.839	332.649	23.502	56.870
589.052	334.014	22.552	56.492
590.753	333.688	21.719	56.915
592.287	333.492	21.253	57.468
594.516	331.720	21.344	58.054
596.841	332.700	20.459	55.365
597.983	329.850	21.546	53.997
594.658	329.491	24.223	53.971
599.280	331.581	23.045	42.464
599.852	330.340	22.867	45.972
599.480	330.236	23.100	45.410
599.413	330.574	24.328	43.416
599.442	330.250	22.742	42.073
602.312	330.386	24.134	41.686
601.931	331.351	23.029	43.170
601.469	330.866	24.925	40.179
601.791	330.235	25.830	44.624
602.965	332.865	24.524	46.180
602.277	330.945	23.121	51.099
605.063	333.728	22.518	49.158
606.986	333.120	20.180	53.853
607.488	332.680	19.905	58.944
608.059	332.729	19.991	60.629
609.180	334.072	19.956	60.475
602.628	335.833	24.368	59.039
607.676	333.528	23.805	60.706
612.483	335.151	20.313	58.985
605.426	335.464	26.003	60.897
610.451	334.764	23.952	60.725
616.135	334.455	19.857	61.490
615.005	334.176	21.624	62.041
618.434	334.396	21.975	60.036
619.688	332.934	21.457	58.975
623.362	335.518	20.333	47.666
625.150	336.604	20.236	40.356
625.636	334.033	20.642	41.511
625.228	335.292	22.498	39.345
625.301	334.045	22.820	40.128
625.176	333.098	22.929	40.093
624.542	332.687	23.737	40.611
624.997	332.832	24.278	42.231
625.536	334.494	24.542	41.048
626.904	335.541	24.009	40.943
626.745	333.457	23.556	43.586
626.273	331.874	24.520	47.288
627.207	333.832	24.069	45.631
628.697	333.740	22.045	45.968
627.599	334.237	20.408	54.064
633.121	336.203	20.016	59.142
630.754	332.492	22.095	65.829
632.945	335.981	20.906	64.156
632.059	336.955	22.718	63.850
631.515	338.829	23.459	61.422
632.750	338.721	23.640	62.204
633.336	334.505	23.466	62.898
636.554	335.541	21.979	65.067
637.403	335.563	22.170	63.464
632.321	336.608	24.043	63.440
639.298	335.760	23.708	64.355
641.361	333.917	25.146	58.263
643.859	334.567	23.811	52.441
642.442	333.773	24.402	51.105
648.010	334.264	22.872	45.841
646.898	335.794	24.014	41.521
646.958	335.923	24.215	40.707
647.839	335.530	23.992	41.490
648.773	336.313	24.712	41.513
648.947	335.691	24.265	42.515
648.521	335.163	25.223	43.602
648.426	335.631	26.456	45.031
649.063	335.787	25.670	47.401
648.354	334.910	23.228	46.230
648.513	334.819	24.786	47.153
652.177	338.034	23.595	44.564
656.677	336.743	19.942	49.869
656.229	335.994	19.966	54.002
654.917	336.118	21.913	60.890
655.692	336.096	22.200	64.407
655.671	337.752	23.557	63.361
656.411	337.593	23.845	66.573
651.520	339.672	27.229	65.191
649.543	339.139	27.722	64.952
651.609	336.911	26.547	65.796
660.307	336.917	23.426	65.549
667.158	336.342	21.955	55.087
665.472	336.933	21.958	49.006
667.310	337.348	24.122	44.304
666.165	335.982	23.569	46.483
667.311	337.750	26.110	44.263
668.338	336.641	26.173	44.405
669.638	338.148	26.803	43.355
670.353	337.813	26.480	44.108
670.348	336.180	26.792	45.596
671.657	338.181	26.657	44.893
671.687	336.710	25.367	45.633
672.672	338.048	26.927	45.357
672.616	337.245	27.284	46.726
673.005	337.604	27.252	50.130
672.646	337.264	24.239	50.899
672.997	337.938	25.653	52.199
674.976	336.774	24.208	51.462
677.410	336.935	23.160	52.288
677.590	337.919	22.062	53.164
681.408	338.099	20.735	60.958
679.771	336.934	22.529	63.323
680.934	338.492	22.789	66.100
681.684	338.238	23.143	68.608
682.761	340.504	23.617	70.543
681.078	342.616	25.950	69.216
679.035	338.403	27.729	69.358
680.259	339.941	26.595	70.469
677.916	340.925	29.194	69.413
685.708	340.391	26.647	68.865
693.667	338.447	23.690	62.222
695.190	338.803	22.522	53.689
694.671	338.356	24.528	47.660
693.754	338.132	26.598	46.849
693.531	338.672	26.776	47.999
693.704	337.955	25.265	48.429
693.871	339.017	25.856	47.454
694.961	340.563	27.454	45.490
696.214	338.773	25.719	45.280
696.323	339.484	26.993	47.271
697.218	339.241	26.792	47.187
697.872	339.576	27.204	49.905
698.605	338.740	27.586	52.174
702.170	339.096	25.937	49.878
700.494	339.020	22.900	49.534
700.423	339.144	24.121	48.974
701.762	339.027	23.284	48.317
702.275	339.627	24.323	49.883
704.465	339.178	23.117	48.971
704.675	339.310	22.654	47.533
706.955	338.387	23.964	49.542
704.194	339.197	24.119	53.521
708.607	341.913	25.077	52.781
710.494	341.122	23.868	50.303
709.788	340.544	22.919	45.573
712.924	340.265	24.132	45.792
716.649	342.278	24.407	45.968
717.805	341.505	25.224	46.460
716.974	339.845	25.167	48.801
719.568	342.911	28.012	45.640
720.384	342.797	28.045	46.070
721.214	342.362	28.308	46.541
721.658	343.412	29.891	46.379
722.906	344.185	29.573	45.923
723.810	342.622	25.320	47.387
723.028	344.309	27.286	45.519
723.888	343.673	26.301	46.464
723.186	341.821	26.182	47.954
724.133	342.428	26.234	51.296
724.141	341.343	26.999	51.042
724.941	340.953	29.375	49.775
724.907	341.463	24.598	50.381
727.586	341.721	25.625	47.213
730.134	343.711	24.224	48.921
730.570	340.444	22.562	53.688
732.225	342.238	23.894	53.343
729.225	343.970	23.740	51.443
723.225	345.208	25.537	58.807
716.144	347.191	26.920	68.985
699.212	344.102	31.570	79.058
683.694	346.909	32.830	74.704
672.916	342.468	32.648	74.036
676.898	340.075	29.155	77.094
678.061	339.866	30.329	75.461
683.440	338.341	27.735	61.444
685.592	339.911	25.580	51.594
689.079	340.633	25.083	44.722
686.889	338.522	26.499	46.694
686.454	337.544	26.975	46.966
685.101	337.174	27.764	47.376
685.673	336.804	26.861	47.987
686.997	338.258	28.632	47.206
688.518	337.783	28.562	47.912
689.495	337.464	28.756	48.330
693.061	340.320	28.170	47.060
693.178	340.540	25.024	53.176
693.391	338.906	25.992	52.119
693.759	339.887	23.586	52.589
692.843	336.548	23.652	54.630
688.872	339.538	24.641	51.137
693.579	337.984	23.352	57.599
683.908	340.302	29.766	64.150
689.075	339.309	31.098	74.365
677.681	342.243	39.473	79.312
685.517	346.090	40.291	75.533
683.860	341.518	42.356	80.974
681.174	340.926	39.102	81.305
684.889	341.559	37.100	80.618
693.241	340.661	35.754	81.556
701.499	339.618	33.384	80.951
702.801	340.463	35.842	81.846
709.475	340.449	33.756	80.579
704.646	338.002	32.707	81.613
707.968	339.463	38.445	78.126
708.814	338.465	37.324	77.390
699.193	338.059	47.705	78.787
689.930	342.233	52.804	82.311
704.337	343.199	39.546	81.521
715.599	345.771	36.594	80.414
706.198	340.191	40.834	82.950
722.975	344.001	32.188	76.528
723.314	341.866	30.291	78.383
727.496	338.734	26.501	68.146
726.242	342.488	26.501	58.146
726.079	340.589	25.010	58.530
723.609	349.664	27.866	64.259
713.023	354.875	37.065	70.679
721.432	349.836	34.471	77.040
711.044	343.106	37.836	87.937
694.766	350.497	45.597	77.942
677.050	355.949	44.424	75.498
667.119	354.804	42.555	78.015
669.361	356.492	40.966	79.405
673.227	359.820	37.943	79.125
673.819	360.219	37.513	79.292
676.564	360.272	39.989	78.075
678.884	358.263	43.761	79.973
678.208	356.822	44.234	82.750
681.998	356.762	42.634	83.149
684.036	356.894	48.670	79.698
744.309	342.514	43.355	72.201
744.049	343.477	36.128	75.152
746.426	343.030	42.137	84.192
740.367	344.037	42.470	86.576
731.745	347.809	49.911	83.370
746.444	347.161	37.584	87.249
756.330	348.186	35.982	83.996
752.600	344.849	36.503	82.992
761.854	346.106	32.917	73.250
762.514	343.725	31.390	72.255
762.807	345.640	31.257	77.522
760.889	345.404	31.626	82.938
746.884	356.370	43.461	78.492
732.286	355.761	47.379	82.712
741.520	347.478	53.385	88.714
753.795	346.155	46.472	89.069
751.701	353.246	52.087	83.089
758.269	351.201	48.985	86.421
759.532	351.037	46.526	86.028
753.934	350.039	48.656	87.642
760.816	350.578	47.112	86.600
750.061	351.140	53.030	86.122
763.396	350.384	49.381	88.057
777.846	348.711	40.059	88.834
777.120	349.480	44.510	89.494
774.727	352.303	47.926	86.838
768.788	350.918	52.441	89.087
776.349	350.198	41.644	89.449
782.711	347.583	37.765	87.623
773.739	350.978	46.837	87.937
780.986	349.624	42.190	92.766
787.335	352.205	39.083	91.185
777.982	352.499	49.219	90.328
790.595	351.947	46.632	92.643
785.338	347.364	47.482	92.586
781.371	350.891	51.856	88.308
746.342	369.414	50.530	82.156
750.516	372.413	48.463	80.601
756.967	370.134	46.365	81.977
765.004	362.860	44.591	88.079
773.630	355.759	42.546	92.173
762.453	359.847	43.510	91.160
772.574	356.728	51.418	94.897
803.407	349.265	50.480	97.181
786.731	359.967	69.733	86.808
793.805	350.939	54.909	98.350
803.467	351.661	53.862	94.128
783.368	359.394	68.024	90.152
772.062	362.679	55.107	94.343
786.325	352.472	51.028	100.509
776.361	367.334	47.839	94.118
787.581	374.803	43.534	86.511
783.345	376.572	47.941	83.245
783.993	364.485	50.585	89.703
794.444	382.380	44.726	80.751
797.141	386.197	41.956	76.067
800.976	399.389	39.546	66.556
803.214	401.357	40.188	60.894
805.035	393.073	44.370	65.918
807.766	388.795	51.741	72.050
831.073	363.103	51.812	84.768
841.333	354.743	47.156	97.987
823.940	358.014	66.116	98.520
846.417	352.549	50.587	99.862
854.209	362.789	41.570	91.287
863.146	359.997	37.704	93.411
842.390	358.914	49.729	102.190
828.824	372.161	41.305	96.260
834.708	362.438	51.262	95.945
832.857	365.199	45.976	90.156
835.476	376.804	47.477	91.833
843.295	371.274	48.932	92.861
838.285	372.538	51.324	96.382
854.223	359.297	54.167	104.514
838.683	376.029	57.926	94.146
848.024	374.794	59.456	96.150
844.324	373.624	50.011	98.707
847.291	403.772	46.536	74.583
856.691	396.463	39.360	76.561
858.043	379.564	44.859	83.956
862.356	393.525	45.064	76.925
865.069	386.909	44.607	85.529
867.075	391.494	46.805	81.021
866.977	390.515	53.442	82.894
868.774	376.186	54.253	96.207
866.154	398.900	52.895	81.014
865.443	400.909	49.386	74.838
865.056	412.294	50.081	62.415
874.911	408.877	44.464	62.918
878.752	393.356	43.278	77.114
881.171	372.602	53.400	102.606
880.745	366.990	59.326	109.575
886.362	368.150	61.023	110.853
865.567	361.663	72.280	111.583
884.137	368.895	62.938	106.289
889.322	366.419	57.096	104.179
884.428	361.608	53.754	103.455
876.501	363.786	51.355	101.441
878.687	364.328	53.979	102.290
884.803	378.478	54.018	102.592
877.038	376.628	58.010	102.699
866.625	378.581	50.248	96.341
873.503	387.374	51.456	93.833
860.813	391.394	50.497	84.470
862.619	391.256	49.024	85.811
869.282	404.800	43.871	82.274
871.287	403.816	40.900	77.208
861.684	397.080	51.845	80.939
870.610	402.771	46.652	87.178
857.671	404.160	54.230	85.543
842.478	405.993	62.199	83.356
820.567	402.466	60.014	85.643
819.429	401.122	66.486	88.695
813.552	380.086	60.400	110.193
805.598	397.440	62.885	97.694
807.336	388.373	62.390	103.783
797.324	390.319	65.049	104.957
806.982	384.691	56.177	111.291
791.871	384.930	52.390	109.775
781.716	392.525	52.783	104.056
774.519	392.990	50.327	102.225
763.687	403.136	51.145	91.742
757.892	395.595	53.166	96.133
750.518	385.785	62.579	106.328
759.172	388.947	71.502	107.543
758.142	388.838	74.976	107.934
755.887	386.784	76.903	108.968
751.883	387.435	73.272	110.002
750.330	390.973	67.418	107.390
759.939	391.268	56.855	106.278
762.090	397.340	53.646	100.426
769.413	389.855	49.641	105.841
768.687	389.865	54.003	107.276
764.061	389.681	54.739	106.720
754.261	391.191	60.950	107.090
745.235	387.742	65.238	110.867
735.791	386.644	68.830	110.765
729.769	388.168	68.681	110.489
654.166	397.398	80.688	106.365
653.555	400.960	75.252	109.414
735.027	386.487	68.882	114.363
732.042	389.529	66.462	111.360
722.869	381.675	74.962	117.908
746.831	384.177	49.053	115.879
750.577	388.383	43.416	111.332
685.615	400.999	59.121	104.193
697.390	391.216	60.063	114.676
689.305	397.145	70.538	112.158
729.859	391.807	89.203	116.355
737.133	386.481	89.575	120.015
720.979	384.445	108.439	124.672
729.346	387.546	107.036	122.738
744.438	387.731	94.257	122.442
754.737	389.941	83.177	118.546
747.820	387.358	76.879	121.093
675.351	373.915	73.659	118.011
658.238	372.918	75.029	117.427
674.415	370.805	72.989	120.554
771.603	383.850	80.546	125.863
775.886	385.889	87.046	123.689
777.527	386.499	92.543	122.901
773.951	388.655	94.086	120.395
770.443	389.112	98.107	119.785
767.964	388.513	102.170	120.687
773.980	387.364	94.776	121.448
775.501	385.928	96.490	121.060
789.168	384.555	83.725	121.748
807.633	384.280	64.405	124.797
819.002	384.331	54.652	123.245
819.929	383.493	56.086	125.547
828.108	394.761	55.547	118.761
828.425	413.537	64.619	101.595
832.305	409.410	73.801	105.204
825.349	393.502	89.255	118.112
824.708	391.047	94.313	118.799
824.808	388.915	102.165	122.732
831.653	386.311	100.539	125.957
